timestamps,emg_signal
1685905648.6068583,298
1685905648.6192107,299
1685905648.632009,300
1685905648.6478796,302
1685905648.6602664,302
1685905648.6728022,301
1685905648.688406,301
1685905648.7013452,302
1685905648.7173994,303
1685905648.7303414,304
1685905648.742433,304
1685905648.758889,303
1685905648.7711217,303
1685905648.7831242,304
1685905648.799105,305
1685905648.812131,306
1685905648.8241243,305
1685905648.8401098,304
1685905648.8531077,304
1685905648.8651617,304
1685905648.8811855,305
1685905648.894109,305
1685905648.910163,303
1685905648.9221091,302
1685905648.935108,302
1685905648.9511611,303
1685905648.9637885,303
1685905648.976078,303
1685905648.9926198,301
1685905649.004815,300
1685905649.0168033,301
1685905649.0328715,302
1685905649.044846,303
1685905649.0617995,302
1685905649.0738678,301
1685905649.086587,300
1685905649.1027808,301
1685905649.1150525,302
1685905649.1268048,303
1685905649.1438086,302
1685905649.155752,301
1685905649.1677046,301
1685905649.1846867,303
1685905649.1967025,305
1685905649.2127447,306
1685905649.2252166,305
1685905649.23788,305
1685905649.2538595,306
1685905649.2668679,309
1685905649.2788124,310
1685905649.2948184,310
1685905649.3078053,309
1685905649.3197982,309
1685905649.3357155,310
1685905649.3486733,311
1685905649.3607209,312
1685905649.3766582,311
1685905649.389669,309
1685905649.4060001,308
1685905649.4179814,309
1685905649.4297624,310
1685905649.4469543,310
1685905649.4587157,308
1685905649.4707181,306
1685905649.487722,306
1685905649.499713,307
1685905649.511719,308
1685905649.5287075,308
1685905649.5407124,306
1685905649.556717,305
1685905649.5697858,305
1685905649.5819168,307
1685905649.5979266,307
1685905649.6109164,307
1685905649.623083,306
1685905649.639554,305
1685905649.6509202,306
1685905649.663929,307
1685905649.6799283,308
1685905649.6929188,307
1685905649.704962,306
1685905649.721538,305
1685905649.733541,306
1685905649.7495506,308
1685905649.7618792,308
1685905649.7745354,307
1685905649.7906015,306
1685905649.8025641,306
1685905649.8155699,308
1685905649.83178,309
1685905649.8437767,309
1685905649.8560715,308
1685905649.8726287,307
1685905649.8848794,307
1685905649.900589,309
1685905649.9139097,310
1685905649.9257073,309
1685905649.9424472,308
1685905649.9542258,307
1685905649.9671547,308
1685905649.983168,310
1685905649.9955432,311
1685905650.0077565,310
1685905650.0241275,309
1685905650.036128,309
1685905650.0526228,310
1685905650.065825,311
1685905650.0778244,311
1685905650.0941098,310
1685905650.1058354,309
1685905650.1188238,308
1685905650.134828,309
1685905650.14783,310
1685905650.1588416,309
1685905650.1758292,308
1685905650.1878428,306
1685905650.199885,307
1685905650.2168283,308
1685905650.2288382,308
1685905650.2448356,307
1685905650.2578223,306
1685905650.2698355,305
1685905650.2858415,305
1685905650.2988257,306
1685905650.310836,307
1685905650.3267944,305
1685905650.3397918,304
1685905650.351797,303
1685905650.3677983,304
1685905650.380804,306
1685905650.3967957,306
1685905650.408809,305
1685905650.4218085,304
1685905650.438464,305
1685905650.4497943,306
1685905650.4628115,308
1685905650.4788065,308
1685905650.490851,307
1685905650.5038025,306
1685905650.5198054,307
1685905650.5316305,309
1685905650.5446396,310
1685905650.5607066,309
1685905650.5734103,308
1685905650.5892031,307
1685905650.601234,308
1685905650.6137645,309
1685905650.6303852,309
1685905650.6422446,308
1685905650.6550887,307
1685905650.671656,306
1685905650.6836493,307
1685905650.6957152,308
1685905650.7122893,309
1685905650.724407,307
1685905650.7404606,306
1685905650.753681,306
1685905650.765735,307
1685905650.7817445,308
1685905650.794679,307
1685905650.8061152,306
1685905650.823062,305
1685905650.8353608,305
1685905650.8477116,307
1685905650.863691,307
1685905650.8757482,307
1685905650.8886917,305
1685905650.9046912,305
1685905650.9170299,306
1685905650.9328709,307
1685905650.9458787,308
1685905650.958273,307
1685905650.9742777,305
1685905650.9866982,305
1685905650.9986677,306
1685905651.0156646,308
1685905651.0278559,308
1685905651.0398731,307
1685905651.0566788,306
1685905651.0688756,306
1685905651.0846784,307
1685905651.0976753,308
1685905651.109674,308
1685905651.1257222,306
1685905651.1386547,306
1685905651.1506584,306
1685905651.1667113,307
1685905651.1796644,308
1685905651.1919765,307
1685905651.207658,306
1685905651.21965,305
1685905651.2362268,306
1685905651.2490501,307
1685905651.2610486,307
1685905651.2780485,306
1685905651.2900493,305
1685905651.3020487,305
1685905651.3187792,306
1685905651.3308384,307
1685905651.3428454,307
1685905651.3590877,306
1685905651.371784,305
1685905651.3838422,305
1685905651.3999212,306
1685905651.4120786,308
1685905651.4291139,308
1685905651.4418793,307
1685905651.4541166,306
1685905651.470116,307
1685905651.482131,308
1685905651.494264,309
1685905651.511269,309
1685905651.523263,307
1685905651.5350947,307
1685905651.5518482,308
1685905651.5640352,309
1685905651.5799775,310
1685905651.5924425,309
1685905651.6052496,307
1685905651.621387,307
1685905651.6334286,308
1685905651.646438,310
1685905651.6624513,310
1685905651.6751828,309
1685905651.6874483,308
1685905651.7034469,308
1685905651.7154303,309
1685905651.7279384,310
1685905651.7446158,310
1685905651.7566147,309
1685905651.773654,308
1685905651.785671,309
1685905651.797888,310
1685905651.8139532,310
1685905651.8267546,310
1685905651.8385699,309
1685905651.8554833,308
1685905651.8672466,309
1685905651.8793616,311
1685905651.8955123,311
1685905651.9085717,310
1685905651.9247594,309
1685905651.937269,309
1685905651.9493866,310
1685905651.9659193,311
1685905651.977845,311
1685905651.9900672,310
1685905652.0063837,309
1685905652.0184035,309
1685905652.0312169,310
1685905652.0476851,311
1685905652.0608058,311
1685905652.0764632,309
1685905652.0885327,308
1685905652.1005054,309
1685905652.1174445,310
1685905652.129627,310
1685905652.1416187,309
1685905652.1586199,308
1685905652.1709337,307
1685905652.1828983,308
1685905652.1990807,309
1685905652.2114618,309
1685905652.2234786,308
1685905652.2400837,307
1685905652.2522857,307
1685905652.268704,309
1685905652.2811868,311
1685905652.293594,311
1685905652.3098476,310
1685905652.3221653,309
1685905652.3341498,309
1685905652.3509061,311
1685905652.3632343,312
1685905652.375228,311
1685905652.391334,309
1685905652.4045188,308
1685905652.4204893,309
1685905652.4326026,310
1685905652.4446137,311
1685905652.461604,310
1685905652.4734914,308
1685905652.4862974,308
1685905652.502909,309
1685905652.5149744,310
1685905652.5269573,310
1685905652.5431485,309
1685905652.5555592,308
1685905652.571473,308
1685905652.5844543,309
1685905652.5964613,310
1685905652.6132975,310
1685905652.6255426,309
1685905652.636985,308
1685905652.6542063,308
1685905652.6664884,310
1685905652.6783407,311
1685905652.6948166,310
1685905652.7069736,309
1685905652.7189827,308
1685905652.736032,309
1685905652.7480285,310
1685905652.7643554,311
1685905652.7771642,310
1685905652.7891922,308
1685905652.8051062,308
1685905652.8175306,309
1685905652.8296623,311
1685905652.8465245,311
1685905652.8593843,310
1685905652.8713362,308
1685905652.8873782,308
1685905652.8994262,310
1685905652.9155636,311
1685905652.9282222,311
1685905652.9407918,310
1685905652.9564672,308
1685905652.9692802,309
1685905652.982231,310
1685905652.997479,311
1685905653.0105162,310
1685905653.0223925,309
1685905653.0395472,309
1685905653.0514636,309
1685905653.0634625,311
1685905653.0799356,311
1685905653.0919201,310
1685905653.1079195,309
1685905653.120922,309
1685905653.1329188,309
1685905653.1492627,310
1685905653.161262,310
1685905653.1742618,309
1685905653.1906912,308
1685905653.2028842,307
1685905653.2150078,308
1685905653.2311766,309
1685905653.2438934,309
1685905653.2596633,307
1685905653.2723482,306
1685905653.2844129,306
1685905653.3003416,307
1685905653.3127441,308
1685905653.3258684,307
1685905653.34187,305
1685905653.353748,305
1685905653.3666892,306
1685905653.383943,307
1685905653.3950958,307
1685905653.4080658,306
1685905653.4239814,305
1685905653.4363208,305
1685905653.4533422,307
1685905653.4646564,308
1685905653.4772613,308
1685905653.4937055,307
1685905653.5053184,306
1685905653.5182939,306
1685905653.534665,308
1685905653.5471184,309
1685905653.5589423,309
1685905653.5753605,307
1685905653.5876024,307
1685905653.6042783,308
1685905653.6166487,309
1685905653.6286538,310
1685905653.6448882,309
1685905653.6569257,308
1685905653.6696098,307
1685905653.6859326,308
1685905653.6981893,309
1685905653.7102313,309
1685905653.727306,308
1685905653.7398841,306
1685905653.7557466,306
1685905653.7680306,307
1685905653.7800775,308
1685905653.7960885,308
1685905653.8090844,307
1685905653.8209803,306
1685905653.8376215,306
1685905653.8500512,308
1685905653.8620536,308
1685905653.878067,308
1685905653.8910582,306
1685905653.9030578,306
1685905653.9197104,307
1685905653.931693,308
1685905653.9480035,309
1685905653.9600077,308
1685905653.973009,307
1685905653.989003,306
1685905654.0010011,307
1685905654.013568,309
1685905654.0299902,309
1685905654.0419948,307
1685905654.055005,306
1685905654.0710025,306
1685905654.0830066,308
1685905654.099054,309
1685905654.1122406,309
1685905654.1240442,308
1685905654.140991,307
1685905654.153066,307
1685905654.1650553,309
1685905654.1810431,310
1685905654.1940086,309
1685905654.2060502,308
1685905654.2230148,307
1685905654.2349932,308
1685905654.2510066,309
1685905654.2633631,310
1685905654.275739,309
1685905654.2919097,307
1685905654.3038223,307
1685905654.316794,308
1685905654.3330595,309
1685905654.3462243,309
1685905654.3580124,308
1685905654.3739967,306
1685905654.386128,306
1685905654.3990684,308
1685905654.4148986,309
1685905654.4274962,309
1685905654.4435356,307
1685905654.455549,307
1685905654.4681165,307
1685905654.4849555,308
1685905654.496726,308
1685905654.509537,308
1685905654.5257611,306
1685905654.5379446,305
1685905654.5498931,306
1685905654.5664344,307
1685905654.5784552,307
1685905654.594458,306
1685905654.6074448,305
1685905654.619748,305
1685905654.6364543,306
1685905654.64844,308
1685905654.6605005,308
1685905654.676547,307
1685905654.6895545,306
1685905654.7015462,307
1685905654.7185478,308
1685905654.730546,309
1685905654.7425435,309
1685905654.7585564,307
1685905654.771631,307
1685905654.7875445,307
1685905654.799926,308
1685905654.812554,309
1685905654.828568,309
1685905654.840585,307
1685905654.8532999,307
1685905654.8696961,308
1685905654.8816955,309
1685905654.8940265,310
1685905654.9110684,309
1685905654.9227307,308
1685905654.938586,308
1685905654.9516072,309
1685905654.964969,310
1685905654.9798288,310
1685905654.992789,309
1685905655.0051963,308
1685905655.021808,309
1685905655.0336711,310
1685905655.045682,311
1685905655.0624945,311
1685905655.0744207,309
1685905655.090256,309
1685905655.1033444,309
1685905655.115153,310
1685905655.1321654,311
1685905655.144171,310
1685905655.15634,309
1685905655.172392,308
1685905655.185347,309
1685905655.1972322,311
1685905655.2132664,311
1685905655.2262638,310
1685905655.23862,308
1685905655.2542539,308
1685905655.2669008,309
1685905655.2827792,310
1685905655.2957788,310
1685905655.3077934,309
1685905655.3238323,307
1685905655.3367848,307
1685905655.349249,308
1685905655.367101,309
1685905655.3776593,309
1685905655.3909473,308
1685905655.4059525,307
1685905655.417946,308
1685905655.4349487,309
1685905655.4469469,310
1685905655.4599478,309
1685905655.4757152,308
1685905655.48772,308
1685905655.5007193,308
1685905655.516716,310
1685905655.5287292,310
1685905655.5417275,309
1685905655.557733,308
1685905655.5697198,308
1685905655.5817282,309
1685905655.5987127,310
1685905655.610931,310
1685905655.6267223,309
1685905655.6397207,308
1685905655.651712,308
1685905655.6679418,310
1685905655.6804388,311
1685905655.6926377,310
1685905655.7099473,309
1685905655.7218404,309
1685905655.7339253,309
1685905655.750462,311
1685905655.762239,311
1685905655.778817,310
1685905655.7914822,309
1685905655.8035462,309
1685905655.8202095,310
1685905655.8325293,311
1685905655.8449001,311
1685905655.8608634,310
1685905655.8729866,308
1685905655.8855934,308
1685905655.9023066,309
1685905655.9145377,311
1685905655.9303768,311
1685905655.9426491,309
1685905655.9549112,308
1685905655.9713378,309
1685905655.9833832,310
1685905655.9956696,311
1685905656.0128663,310
1685905656.0245547,308
1685905656.037863,308
1685905656.0538015,308
1685905656.065858,309
1685905656.0782807,310
1685905656.0939457,309
1685905656.1069477,308
1685905656.1229546,307
1685905656.1354864,309
1685905656.1479318,310
1685905656.1639347,310
1685905656.1764457,309
1685905656.1885424,308
1685905656.2052457,308
1685905656.2172039,310
1685905656.229411,310
1685905656.2460728,310
1685905656.2585964,309
1685905656.2737255,308
1685905656.2870479,308
1685905656.2990127,310
1685905656.3159359,310
1685905656.328309,310
1685905656.3403664,308
1685905656.3565855,307
1685905656.3685753,308
1685905656.3806448,309
1685905656.398223,310
1685905656.4097338,309
1685905656.4215724,308
1685905656.4387238,308
1685905656.450709,309
1685905656.4665153,310
1685905656.4795153,310
1685905656.4915164,309
1685905656.5075724,308
1685905656.520526,308
1685905656.53253,310
1685905656.5485773,311
1685905656.5617094,311
1685905656.5735135,309
1685905656.5895233,308
1685905656.6025183,309
1685905656.6179848,310
1685905656.6310372,311
1685905656.6430378,310
1685905656.6592846,308
1685905656.67211,308
1685905656.6841402,309
1685905656.7004583,310
1685905656.7131379,311
1685905656.7253098,310
1685905656.7411463,308
1685905656.7541547,308
1685905656.769151,309
1685905656.782198,310
1685905656.7944493,310
1685905656.811476,308
1685905656.8234766,307
1685905656.8354719,307
1685905656.8518877,308
1685905656.8644767,309
1685905656.8764858,308
1685905656.8924944,307
1685905656.9055073,306
1685905656.9174924,306
1685905656.9337764,308
1685905656.9465039,308
1685905656.9624991,308
1685905656.9745092,306
1685905656.9876375,306
1685905657.0040162,307
1685905657.0161176,308
1685905657.0281327,309
1685905657.0441754,308
1685905657.0571218,307
1685905657.0691187,307
1685905657.0851336,308
1685905657.0981748,309
1685905657.1141355,309
1685905657.1261752,308
1685905657.1381323,307
1685905657.1549244,307
1685905657.1677096,308
1685905657.1797116,309
1685905657.1957316,308
1685905657.2087305,307
1685905657.2207146,306
1685905657.2367136,307
1685905657.2487843,308
1685905657.2617118,309
1685905657.2777114,308
1685905657.2903168,307
1685905657.306179,307
1685905657.3186796,308
1685905657.3316233,309
1685905657.3476183,309
1685905657.3596783,308
1685905657.3722243,307
1685905657.388152,307
1685905657.401148,308
1685905657.413424,309
1685905657.4291549,309
1685905657.4421551,308
1685905657.4581223,308
1685905657.4705007,308
1685905657.483112,310
1685905657.499095,310
1685905657.5110254,310
1685905657.5240235,309
1685905657.5400448,308
1685905657.5520933,309
1685905657.5649192,310
1685905657.5812902,310
1685905657.5936356,309
1685905657.6092372,307
1685905657.6222453,307
1685905657.634304,307
1685905657.6502357,308
1685905657.6632435,309
1685905657.6752663,307
1685905657.6913383,306
1685905657.7042768,306
1685905657.7163453,307
1685905657.7323732,308
1685905657.744761,308
1685905657.757345,307
1685905657.7738767,306
1685905657.7857857,307
1685905657.8024387,308
1685905657.8144305,309
1685905657.8264399,309
1685905657.843433,308
1685905657.8554301,307
1685905657.8675537,308
1685905657.8838682,309
1685905657.8968635,310
1685905657.9088657,309
1685905657.9254727,308
1685905657.9375644,308
1685905657.953208,309
1685905657.9662738,310
1685905657.9783568,310
1685905657.994217,309
1685905658.007276,308
1685905658.0195885,308
1685905658.0351262,309
1685905658.0481803,310
1685905658.0603755,309
1685905658.0766945,308
1685905658.0886889,307
1685905658.1014304,307
1685905658.1176784,309
1685905658.1296759,309
1685905658.145686,309
1685905658.1586828,307
1685905658.1706784,306
1685905658.187584,307
1685905658.1997097,308
1685905658.2119753,309
1685905658.2284486,308
1685905658.2404587,307
1685905658.2530022,306
1685905658.2694418,307
1685905658.2814994,309
1685905658.2975008,308
1685905658.3104599,307
1685905658.3225005,306
1685905658.3388882,306
1685905658.350891,307
1685905658.363292,308
1685905658.3798184,308
1685905658.3920944,306
1685905658.4042044,305
1685905658.4211125,306
1685905658.4331555,307
1685905658.4492605,308
1685905658.4611025,307
1685905658.4740987,305
1685905658.4901578,305
1685905658.5021555,305
1685905658.5151532,306
1685905658.531111,306
1685905658.5440989,305
1685905658.5560923,304
1685905658.5721178,303
1685905658.5848174,304
1685905658.5968192,305
1685905658.6132975,305
1685905658.625733,304
1685905658.642347,303
1685905658.6543868,303
1685905658.6667566,304
1685905658.6833456,305
1685905658.6952598,304
1685905658.7080853,303
1685905658.7243326,302
1685905658.736254,302
1685905658.748404,303
1685905658.764403,304
1685905658.776934,303
1685905658.7937553,301
1685905658.8061106,300
1685905658.8183267,301
1685905658.8341627,302
1685905658.8472557,302
1685905658.8592544,301
1685905658.8755107,299
1685905658.8877366,299
1685905658.9000897,300
1685905658.9167073,301
1685905658.92956,301
1685905658.9412892,299
1685905658.9574935,298
1685905658.969766,298
1685905658.985866,299
1685905658.9985352,299
1685905659.0110228,299
1685905659.0272045,297
1685905659.0397434,295
1685905659.0519888,295
1685905659.068056,296
1685905659.0800397,296
1685905659.092902,295
1685905659.1089082,294
1685905659.1212852,293
1685905659.1374624,294
1685905659.149742,295
1685905659.1624618,296
1685905659.178469,294
1685905659.190493,294
1685905659.2024517,293
1685905659.2194767,294
1685905659.232174,296
1685905659.2437572,296
1685905659.2608624,295
1685905659.2738795,294
1685905659.288317,294
1685905659.3013153,295
1685905659.3138862,296
1685905659.3301177,295
1685905659.3418815,294
1685905659.354671,294
1685905659.3712554,294
1685905659.3840752,296
1685905659.3960156,297
1685905659.411801,296
1685905659.4237895,295
1685905659.4363642,295
1685905659.4531329,296
1685905659.4651763,298
1685905659.481531,299
1685905659.493459,299
1685905659.5063343,298
1685905659.522798,299
1685905659.5346014,300
1685905659.5465982,302
1685905659.5640416,303
1685905659.5758643,303
1685905659.5875516,303
1685905659.6045845,304
1685905659.616913,306
1685905659.632638,308
1685905659.6455557,309
1685905659.6575565,309
1685905659.6739883,310
1685905659.6858203,312
1685905659.699093,314
1685905659.7150056,316
1685905659.7277563,317
1685905659.7392924,317
1685905659.7561471,318
1685905659.7678926,320
1685905659.7808714,322
1685905659.7968426,324
1685905659.809411,324
1685905659.8254347,324
1685905659.8383684,326
1685905659.849977,328
1685905659.8662078,331
1685905659.8791716,332
1685905659.8910987,332
1685905659.9080267,332
1685905659.9202628,333
1685905659.9323914,335
1685905659.9485574,337
1685905659.96046,338
1685905659.9774027,337
1685905659.9894917,338
1685905660.0021877,339
1685905660.018194,341
1685905660.0308938,343
1685905660.0424814,342
1685905660.0595434,341
1685905660.071226,341
1685905660.0839524,341
1685905660.1003518,342
1685905660.1126606,342
1685905660.127851,341
1685905660.1412454,338
1685905660.1533003,337
1685905660.1702847,336
1685905660.182304,336
1685905660.194307,334
1685905660.2109327,330
1685905660.222714,328
1685905660.2353623,327
1685905660.2514043,328
1685905660.2639968,328
1685905660.2764878,328
1685905660.2930865,327
1685905660.304708,327
1685905660.321168,328
1685905660.3332248,330
1685905660.3460798,330
1685905660.3623927,329
1685905660.3743305,328
1685905660.3868978,327
1685905660.4034584,327
1685905660.4155445,328
1685905660.4281237,326
1685905660.444393,324
1685905660.4565952,322
1685905660.472859,321
1685905660.4853215,321
1685905660.4976628,321
1685905660.5147555,319
1685905660.5260751,316
1685905660.5383732,314
1685905660.5549247,312
1685905660.5672262,313
1685905660.579332,312
1685905660.595073,310
1685905660.6080685,308
1685905660.62414,306
1685905660.636765,306
1685905660.649295,306
1685905660.6653478,306
1685905660.6780915,304
1685905660.6898954,301
1685905660.7062292,300
1685905660.718105,301
1685905660.7311378,301
1685905660.74751,300
1685905660.7594304,298
1685905660.7721686,296
1685905660.787957,295
1685905660.8005755,296
1685905660.817074,296
1685905660.8293972,295
1685905660.8412352,294
1685905660.857697,293
1685905660.8703425,293
1685905660.8828454,294
1685905660.8989596,296
1685905660.9115455,295
1685905660.923611,294
1685905660.939879,294
1685905660.9519196,296
1685905660.9680443,298
1685905660.981127,300
1685905660.9933286,300
1685905661.0093818,300
1685905661.0220487,301
1685905661.0336869,304
1685905661.0501733,307
1685905661.0622349,308
1685905661.0752263,308
1685905661.0913713,307
1685905661.1030846,307
1685905661.1162398,308
1685905661.1325703,309
1685905661.144377,308
1685905661.1611357,306
1685905661.1736069,304
1685905661.1858163,303
1685905661.2018228,304
1685905661.2139552,304
1685905661.2269533,302
1685905661.2434974,300
1685905661.2552674,298
1685905661.2677734,298
1685905661.2842646,298
1685905661.2963462,298
1685905661.3126452,296
1685905661.3246903,295
1685905661.3366868,294
1685905661.353535,294
1685905661.3660479,295
1685905661.3780124,295
1685905661.394183,294
1685905661.4066672,293
1685905661.4186568,293
1685905661.4349544,294
1685905661.4478555,295
1685905661.4598937,295
1685905661.4765267,294
1685905661.4888039,293
1685905661.5049882,294
1685905661.5171678,295
1685905661.5300362,296
1685905661.5462353,296
1685905661.5585382,295
1685905661.570528,295
1685905661.5870416,296
1685905661.5993295,297
1685905661.6110666,297
1685905661.628031,296
1685905661.6402884,295
1685905661.6563237,294
1685905661.6682856,295
1685905661.6812928,297
1685905661.6971004,297
1685905661.7100518,296
1685905661.721995,295
1685905661.737996,296
1685905661.7510514,297
1685905661.7631218,299
1685905661.7793543,299
1685905661.7911808,298
1685905661.8072395,297
1685905661.8205109,298
1685905661.8325143,300
1685905661.8485696,301
1685905661.8615108,301
1685905661.873515,300
1685905661.8902066,299
1685905661.9024267,300
1685905661.914259,302
1685905661.9312103,302
1685905661.9432268,302
1685905661.9552472,301
1685905661.971195,300
1685905661.9844441,302
1685905662.0003479,303
1685905662.0131946,304
1685905662.0251923,303
1685905662.0411909,302
1685905662.0532465,302
1685905662.0661898,303
1685905662.082688,304
1685905662.0950432,304
1685905662.1070414,303
1685905662.1230402,302
1685905662.136058,303
1685905662.1520474,304
1685905662.1640394,305
1685905662.176555,305
1685905662.1930392,304
1685905662.2050457,304
1685905662.2180412,305
1685905662.2340431,307
1685905662.2460446,308
1685905662.259067,307
1685905662.2750573,306
1685905662.2871144,306
1685905662.300049,308
1685905662.3160589,309
1685905662.328105,309
1685905662.344059,308
1685905662.3570418,307
1685905662.3691022,308
1685905662.3850453,309
1685905662.3973043,310
1685905662.4104712,310
1685905662.426249,309
1685905662.438585,309
1685905662.4507804,309
1685905662.4677799,311
1685905662.4797795,312
1685905662.4962747,311
1685905662.5083377,310
1685905662.5210688,310
1685905662.5372741,311
1685905662.549274,313
1685905662.5613315,314
1685905662.5784693,312
1685905662.590713,312
1685905662.6026883,312
1685905662.618688,313
1685905662.6313028,314
1685905662.6473618,314
1685905662.6603112,313
1685905662.672535,312
1685905662.6885824,312
1685905662.700621,313
1685905662.713564,314
1685905662.7296226,313
1685905662.7416291,312
1685905662.7535605,311
1685905662.7707124,311
1685905662.7827144,312
1685905662.794755,312
1685905662.811754,311
1685905662.823755,310
1685905662.839756,310
1685905662.8527591,311
1685905662.8646948,312
1685905662.8810375,312
1685905662.8927572,311
1685905662.9056973,310
1685905662.9217556,310
1685905662.9337661,311
1685905662.946757,312
1685905662.963054,312
1685905662.9755743,311
1685905662.9908357,310
1685905663.003845,310
1685905663.0158505,311
1685905663.0328472,312
1685905663.0448508,311
1685905663.0572746,310
1685905663.073208,309
1685905663.0862095,309
1685905663.0978756,311
1685905663.1148384,312
1685905663.1268835,311
1685905663.1428704,310
1685905663.1554434,310
1685905663.1674404,311
1685905663.1839294,313
1685905663.1969347,314
1685905663.208977,313
1685905663.2249243,311
1685905663.2369263,312
1685905663.2499254,312
1685905663.2659895,313
1685905663.2785544,314
1685905663.2909806,312
1685905663.306984,311
1685905663.319012,311
1685905663.3359244,313
1685905663.3479798,314
1685905663.3599844,313
1685905663.3766947,312
1685905663.3894117,312
1685905663.4016385,312
1685905663.4176168,313
1685905663.4294674,313
1685905663.4424665,312
1685905663.4586174,311
1685905663.470402,311
1685905663.4864738,312
1685905663.4994633,313
1685905663.5114028,313
1685905663.5284126,312
1685905663.5404022,310
1685905663.552403,310
1685905663.569405,311
1685905663.5812654,312
1685905663.593909,312
1685905663.6099148,310
1685905663.6223025,310
1685905663.6342986,310
1685905663.651065,311
1685905663.6635242,312
1685905663.6791227,311
1685905663.6920683,310
1685905663.7040496,309
1685905663.7210524,310
1685905663.7331927,312
1685905663.7457638,312
1685905663.7611449,311
1685905663.7741597,310
1685905663.7861576,310
1685905663.8021297,311
1685905663.815258,312
1685905663.8312745,312
1685905663.8432686,311
1685905663.8562138,310
1685905663.8724866,309
1685905663.8842177,311
1685905663.8972242,312
1685905663.913234,311
1685905663.9252725,310
1685905663.938088,309
1685905663.954085,309
1685905663.9663832,311
1685905663.982442,312
1685905663.9954953,312
1685905664.0070796,311
1685905664.024174,310
1685905664.0361354,310
1685905664.0487933,312
1685905664.0648625,313
1685905664.0773718,312
1685905664.0894191,311
1685905664.1059837,310
1685905664.117839,311
1685905664.130747,313
1685905664.1467586,313
1685905664.1588058,312
1685905664.1747484,311
1685905664.1877415,311
1685905664.1997535,312
1685905664.2166526,313
1685905664.228429,313
1685905664.2404346,312
1685905664.2574458,311
1685905664.2694423,311
1685905664.2814865,312
1685905664.2984474,314
1685905664.3108444,313
1685905664.326848,311
1685905664.3392622,311
1685905664.3512912,311
1685905664.367233,312
1685905664.380292,313
1685905664.3925965,312
1685905664.4084938,311
1685905664.4214945,311
1685905664.4336784,312
1685905664.4496865,313
1685905664.462445,314
1685905664.474745,312
1685905664.490348,311
1685905664.5032902,311
1685905664.5192893,312
1685905664.5313566,313
1685905664.544293,313
1685905664.5603468,311
1685905664.5722978,310
1685905664.5852919,310
1685905664.6007166,311
1685905664.6136532,312
1685905664.6256511,311
1685905664.6428037,310
1685905664.6546745,309
1685905664.670968,309
1685905664.683408,310
1685905664.695028,310
1685905664.711537,309
1685905664.724572,308
1685905664.7370565,307
1685905664.7528965,308
1685905664.7646294,309
1685905664.777587,309
1685905664.7938607,308
1685905664.806431,307
1685905664.822491,307
1685905664.8344862,309
1685905664.847487,310
1685905664.8634968,310
1685905664.8754866,309
1685905664.8884885,309
1685905664.9039512,309
1685905664.9168885,311
1685905664.9288948,311
1685905664.945344,311
1685905664.9573424,309
1685905664.970347,309
1685905664.9863586,309
1685905664.9983594,310
1685905665.0144045,310
1685905665.027343,310
1685905665.0393443,308
1685905665.0553427,307
1685905665.0686343,308
1685905665.0806212,310
1685905665.0966785,310
1685905665.108623,309
1685905665.1216154,307
1685905665.137675,308
1685905665.1500077,309
1685905665.1666167,310
1685905665.17836,310
1685905665.191635,308
1685905665.2073646,307
1685905665.2194192,307
1685905665.232371,309
1685905665.248369,310
1685905665.2603674,309
1685905665.273428,308
1685905665.289369,307
1685905665.301429,308
1685905665.3143778,309
1685905665.3303587,309
1685905665.3424208,308
1685905665.359362,307
1685905665.3715508,306
1685905665.3833652,307
1685905665.4003599,308
1685905665.4123597,308
1685905665.4248135,307
1685905665.4413993,306
1685905665.4533963,306
1685905665.465399,307
1685905665.481455,308
1685905665.4944105,308
1685905665.5104158,307
1685905665.522399,305
1685905665.5354044,305
1685905665.551464,307
1685905665.5634613,308
1685905665.5763984,308
1685905665.5924003,306
1685905665.6048863,306
1685905665.6170552,307
1685905665.6336775,308
1685905665.6456728,310
1685905665.6613007,309
1685905665.6743352,308
1685905665.6863468,308
1685905665.7034209,309
1685905665.7153976,311
1685905665.7273939,311
1685905665.744394,310
1685905665.7563984,309
1685905665.7688487,308
1685905665.7854,309
1685905665.7973962,310
1685905665.8093946,309
1685905665.8263402,308
1685905665.8383958,307
1685905665.8549857,306
1685905665.866702,308
1685905665.8796976,308
1685905665.8957546,307
1685905665.9079502,306
1685905665.9200091,305
1685905665.9369528,305
1685905665.9489608,307
1685905665.9615164,307
1685905665.9778845,306
1685905665.9899259,305
1685905666.0063376,304
1685905666.0184484,305
1685905666.031309,306
1685905666.0472593,306
1685905666.0589638,305
1685905666.0722246,304
1685905666.0884016,304
1685905666.1005375,305
1685905666.112878,306
1685905666.1295254,306
1685905666.1417236,305
1685905666.1542525,304
1685905666.1702752,304
1685905666.1824505,305
1685905666.1989725,306
1685905666.2113202,306
1685905666.2232773,304
1685905666.2394269,304
1685905666.2524812,304
1685905666.2645166,306
1685905666.2800748,306
1685905666.2933266,306
1685905666.3054907,304
1685905666.321956,304
1685905666.3339963,305
1685905666.3505497,306
1685905666.362545,307
1685905666.3743126,305
1685905666.391193,304
1685905666.4035048,304
1685905666.4158182,305
1685905666.4325233,307
1685905666.4447243,307
1685905666.4563503,306
1685905666.4733953,305
1685905666.4854486,306
1685905666.5017824,307
1685905666.513928,309
1685905666.5259767,308
1685905666.5423658,307
1685905666.5547197,306
1685905666.5667162,306
1685905666.5832546,307
1685905666.5959983,308
1685905666.6081722,308
1685905666.6251585,306
1685905666.6372616,306
1685905666.6490002,306
1685905666.665414,308
1685905666.6780431,308
1685905666.6945956,307
1685905666.7069893,306
1685905666.7189999,306
1685905666.7354527,307
1685905666.7474487,309
1685905666.759464,309
1685905666.7764492,308
1685905666.7886443,307
1685905666.8012013,307
1685905666.817277,309
1685905666.829169,310
1685905666.846105,310
1685905666.8580887,309
1685905666.8701012,308
1685905666.8869073,308
1685905666.8989086,310
1685905666.9109852,310
1685905666.9282553,309
1685905666.9400494,308
1685905666.952065,308
1685905666.9686217,309
1685905666.9806883,310
1685905666.9930823,310
1685905667.0092978,308
1685905667.0223107,308
1685905667.0383103,307
1685905667.051302,308
1685905667.0633805,310
1685905667.0793042,310
1685905667.0913522,309
1685905667.103549,308
1685905667.119922,308
1685905667.132798,310
1685905667.1452484,311
1685905667.1610436,310
1685905667.173922,309
1685905667.1897004,308
1685905667.2024705,308
1685905667.2147684,309
1685905667.2306767,310
1685905667.2431974,309
1685905667.255842,308
1685905667.271859,308
1685905667.2838433,309
1685905667.2958539,310
1685905667.3129423,311
1685905667.3248441,310
1685905667.340857,309
1685905667.3538437,310
1685905667.3678415,311
1685905667.3828497,312
1685905667.3948417,312
1685905667.4070873,311
1685905667.4230897,310
1685905667.4361198,310
1685905667.4480944,312
1685905667.4640892,313
1685905667.477092,312
1685905667.4892304,310
1685905667.5050507,310
1685905667.5173898,310
1685905667.5340512,311
1685905667.546121,312
1685905667.5580676,311
1685905667.5750515,310
1685905667.5877373,309
1685905667.59905,310
1685905667.616066,312
1685905667.628092,312
1685905667.6403756,311
1685905667.65647,310
1685905667.6695023,310
1685905667.6854243,311
1685905667.698425,312
1685905667.710403,311
1685905667.7265062,310
1685905667.7385063,309
1685905667.7515063,309
1685905667.7675068,311
1685905667.7795146,312
1685905667.79204,311
1685905667.808308,310
1685905667.820309,309
1685905667.8363113,309
1685905667.849522,311
1685905667.8620148,311
1685905667.8783414,310
1685905667.8903055,309
1685905667.9023197,309
1685905667.9192677,309
1685905667.931265,311
1685905667.9432683,311
1685905667.9602718,310
1685905667.972272,309
1685905667.9842732,309
1685905668.0012681,310
1685905668.0135055,311
1685905668.0295093,310
1685905668.0415003,309
1685905668.0545046,308
1685905668.0705135,308
1685905668.0825684,309
1685905668.0955112,310
1685905668.115504,310
1685905668.1234987,309
1685905668.1360092,308
1685905668.152507,309
1685905668.1645014,310
1685905668.1805024,311
1685905668.1935117,311
1685905668.2056031,310
1685905668.22161,309
1685905668.2347486,311
1685905668.2466054,312
1685905668.2626078,313
1685905668.2756186,312
1685905668.2876065,310
1685905668.3044608,310
1685905668.3166077,311
1685905668.3289943,312
1685905668.345426,312
1685905668.3572142,310
1685905668.3730676,309
1685905668.3862674,309
1685905668.3980649,311
1685905668.414811,311
1685905668.4268124,311
1685905668.4388173,310
1685905668.4558141,309
1685905668.4679456,310
1685905668.4802132,311
1685905668.4959638,312
1685905668.5089421,311
1685905668.525419,309
1685905668.5374572,309
1685905668.5504603,309
1685905668.5664582,310
1685905668.578831,311
1685905668.5908384,309
1685905668.606951,307
1685905668.6189556,307
1685905668.6319518,308
1685905668.6479628,309
1685905668.6600215,309
1685905668.6729643,307
1685905668.6889715,306
1685905668.7010524,306
1685905668.717624,308
1685905668.7295737,309
1685905668.7426262,308
1685905668.7585795,306
1685905668.7706206,306
1685905668.783565,306
1685905668.799625,307
1685905668.811634,308
1685905668.8246312,307
1685905668.8410363,305
1685905668.8532736,305
1685905668.8692799,306
1685905668.8817081,307
1685905668.89425,307
1685905668.9100735,306
1685905668.922679,305
1685905668.935216,305
1685905668.951589,306
1685905668.9635859,308
1685905668.9762115,308
1685905668.9917507,307
1685905669.0047848,306
1685905669.0200098,306
1685905669.0332613,308
1685905669.045,309
1685905669.0620053,309
1685905669.0740068,308
1685905669.0860002,308
1685905669.102771,308
1685905669.1150014,310
1685905669.126997,310
1685905669.1440074,309
1685905669.1560016,308
1685905669.168355,308
1685905669.1849165,309
1685905669.1972144,310
1685905669.2134643,310
1685905669.2253299,310
1685905669.237969,308
1685905669.2545145,309
1685905669.2667637,310
1685905669.2788067,311
1685905669.2953558,311
1685905669.3071702,310
1685905669.320041,309
1685905669.3366385,309
1685905669.3488245,310
1685905669.364383,310
1685905669.3773217,310
1685905669.3891864,308
1685905669.4061017,307
1685905669.4176946,308
1685905669.4306662,309
1685905669.446972,309
1685905669.4589257,309
1685905669.4718153,307
1685905669.487847,306
1685905669.5003092,307
1685905669.5123026,308
1685905669.528255,308
1685905669.5412621,306
1685905669.5571036,305
1685905669.5695155,305
1685905669.582154,306
1685905669.598599,308
1685905669.6108894,308
1685905669.6225867,306
1685905669.6396112,305
1685905669.6520321,306
1685905669.6639254,307
1685905669.6805108,308
1685905669.6925452,307
1685905669.7087557,306
1685905669.721499,305
1685905669.7336972,306
1685905669.7500088,307
1685905669.7631025,307
1685905669.774982,306
1685905669.7913554,304
1685905669.803134,304
1685905669.8158548,306
1685905669.8320866,307
1685905669.8441627,308
1685905669.8609521,307
1685905669.873276,306
1685905669.88472,307
1685905669.9012463,308
1685905669.9133024,310
1685905669.9262128,310
1685905669.9420533,309
1685905669.9550486,308
1685905669.9670308,308
1685905669.9831016,309
1685905669.9950774,310
1685905670.0082994,310
1685905670.0244787,308
1685905670.0366192,307
1685905670.053319,307
1685905670.0654175,308
1685905670.0774188,309
1685905670.094244,308
1685905670.1063967,307
1685905670.1200657,306
1685905670.1350744,307
1685905670.1469312,309
1685905670.159925,309
1685905670.1752687,309
1685905670.1883607,308
1685905670.20439,308
1685905670.216951,309
1685905670.2296505,310
1685905670.2456505,310
1685905670.258097,308
1685905670.2695804,307
1685905670.2866359,307
1685905670.298974,309
1685905670.3105018,309
1685905670.3277516,309
1685905670.3404315,308
1685905670.3521872,307
1685905670.3681436,307
1685905670.3805397,309
1685905670.3974662,309
1685905670.4095294,309
1685905670.422114,308
1685905670.438354,307
1685905670.4505332,308
1685905670.4628196,309
1685905670.47887,309
1685905670.4910483,308
1685905670.503774,307
1685905670.520139,307
1685905670.5323782,308
1685905670.5486062,309
1685905670.5610452,309
1685905670.573346,307
1685905670.5889692,306
1685905670.601967,306
1685905670.614471,308
1685905670.630179,309
1685905670.6431634,308
1685905670.654536,306
1685905670.6716125,306
1685905670.6839051,306
1685905670.7005272,307
1685905670.7129428,308
1685905670.724544,308
1685905670.7406785,307
1685905670.7535927,307
1685905670.7659297,308
1685905670.7816947,309
1685905670.7941742,310
1685905670.8068364,309
1685905670.82403,308
1685905670.8353615,308
1685905670.8477902,309
1685905670.8634431,310
1685905670.8765604,310
1685905670.8924823,309
1685905670.9051466,308
1685905670.9172957,308
1685905670.933429,309
1685905670.9460962,310
1685905670.9589493,309
1685905670.975064,308
1685905670.9871302,307
1685905670.999335,308
1685905671.015137,309
1685905671.0277,310
1685905671.044415,309
1685905671.0568619,308
1685905671.0692706,307
1685905671.0853918,308
1685905671.0975785,309
1685905671.1100147,310
1685905671.12601,309
1685905671.138011,308
1685905671.1510694,308
1685905671.16732,309
1685905671.179214,310
1685905671.1921377,310
1685905671.2077208,309
1685905671.2204714,308
1685905671.2360687,309
1685905671.2488222,310
1685905671.261021,311
1685905671.2781289,311
1685905671.2895882,309
1685905671.3026834,308
1685905671.318719,309
1685905671.3314037,310
1685905671.3439178,311
1685905671.359738,310
1685905671.372291,309
1685905671.3882422,308
1685905671.4002504,309
1685905671.41269,310
1685905671.4294977,310
1685905671.4411612,309
1685905671.4539056,308
1685905671.4703808,307
1685905671.4828238,309
1685905671.495215,310
1685905671.5109174,310
1685905671.5235324,309
1685905671.5392907,307
1685905671.5523207,308
1685905671.5643742,309
1685905671.5810416,309
1685905671.593304,309
1685905671.6049297,307
1685905671.621875,307
1685905671.6355128,307
1685905671.6460598,308
1685905671.6629207,309
1685905671.6749349,308
1685905671.6872094,307
1685905671.703211,306
1685905671.7162743,307
1685905671.7321985,308
1685905671.744377,308
1685905671.7570386,307
1685905671.7734995,306
1685905671.78599,305
1685905671.7980032,306
1685905671.8146155,307
1685905671.8277497,307
1685905671.8392653,307
1685905671.8553083,306
1685905671.8672357,306
1685905671.8842394,307
1685905671.8959725,309
1685905671.9081454,308
1685905671.9249737,307
1685905671.9372373,307
1685905671.9495094,307
1685905671.9655333,309
1685905671.978113,310
1685905671.9903457,309
1685905672.006859,308
1685905672.0193202,307
1685905672.0312293,308
1685905672.0481305,309
1685905672.0605867,310
1685905672.0767422,309
1685905672.089174,307
1685905672.101234,307
1685905672.1175096,308
1685905672.1299715,309
1685905672.1420681,309
1685905672.1581104,307
1685905672.1710336,306
1685905672.1830592,306
1685905672.1995363,307
1685905672.2119527,308
1685905672.228293,308
1685905672.240713,307
1685905672.2525644,306
1685905672.2691045,306
1685905672.2812452,307
1685905672.2936714,308
1685905672.3096447,307
1685905672.3219366,305
1685905672.3343801,304
1685905672.350924,305
1685905672.3634126,307
1685905672.3789003,308
1685905672.3921065,307
1685905672.4041705,306
1685905672.4200943,307
1685905672.4330587,308
1685905672.445574,310
1685905672.4612987,310
1685905672.4741416,310
1685905672.485985,309
1685905672.5025148,309
1685905672.514559,310
1685905672.5271971,311
1685905672.5434916,310
1685905672.5560617,309
1685905672.5712328,308
1685905672.5844922,308
1685905672.5969517,309
1685905672.612992,309
1685905672.6257293,309
1685905672.6377416,307
1685905672.6540217,307
1685905672.66593,308
1685905672.6789253,310
1685905672.6952882,311
1685905672.7070034,310
1685905672.7226362,309
1685905672.7356248,309
1685905672.747617,310
1685905672.7645717,312
1685905672.776661,312
1685905672.7887173,310
1685905672.8055668,309
1685905672.8175662,309
1685905672.8295667,310
1685905672.8465734,311
1685905672.8588161,310
1685905672.8708096,308
1685905672.8874946,307
1685905672.899492,307
1685905672.9158654,308
1685905672.9285004,308
1685905672.9402094,307
1685905672.9572096,306
1685905672.969198,305
1685905672.9815104,306
1685905672.9982076,307
1685905673.0102072,308
1685905673.0223405,307
1685905673.0392244,305
1685905673.0511966,305
1685905673.0672038,306
1685905673.0802143,307
1685905673.0922084,307
1685905673.108202,306
1685905673.121205,305
1685905673.1329951,305
1685905673.1496868,306
1685905673.1617947,307
1685905673.1741557,307
1685905673.190745,306
1685905673.2030075,305
1685905673.2146912,306
1685905673.2317781,308
1685905673.2440088,309
1685905673.2596912,308
1685905673.2726793,307
1685905673.284707,307
1685905673.3006842,308
1685905673.3137405,309
1685905673.3255138,310
1685905673.3423092,308
1685905673.35429,307
1685905673.3664517,307
1685905673.3828661,308
1685905673.3955195,309
1685905673.4115222,309
1685905673.423591,308
1685905673.4365377,307
1685905673.4527612,307
1685905673.4650333,309
1685905673.476838,310
1685905673.4935224,309
1685905673.5055397,308
1685905673.5175273,307
1685905673.5345805,307
1685905673.5465846,309
1685905673.5625353,310
1685905673.5756013,309
1685905673.5875301,307
1685905673.6038404,307
1685905673.6165266,307
1685905673.6287918,309
1685905673.6448374,309
1685905673.6578455,308
1685905673.6698442,307
1685905673.6858218,306
1685905673.698145,307
1685905673.710833,308
1685905673.7270944,308
1685905673.7388976,307
1685905673.7558258,306
1685905673.7688463,306
1685905673.7808285,307
1685905673.7968338,309
1685905673.8091443,309
1685905673.8211448,308
1685905673.8376997,307
1685905673.849698,308
1685905673.8622968,309
1685905673.8784633,310
1685905673.8906255,311
1685905673.907322,310
1685905673.9192855,311
1685905673.9319012,314
1685905673.94826,319
1685905673.960921,323
1685905673.9729047,326
1685905673.9892673,329
1685905674.001251,334
1685905674.014025,341
1685905674.0303428,349
1685905674.0424688,356
1685905674.0584695,362
1685905674.0711334,367
1685905674.083433,372
1685905674.0994716,376
1685905674.1121361,380
1685905674.1241305,381
1685905674.140473,379
1685905674.153135,376
1685905674.1653638,372
1685905674.1814592,366
1685905674.1941338,358
1685905674.2061238,347
1685905674.2231586,335
1685905674.2351427,323
1685905674.2511222,313
1685905674.2631881,306
1685905674.276192,298
1685905674.292248,290
1685905674.3043506,283
1685905674.317142,278
1685905674.3331468,274
1685905674.3454037,273
1685905674.358137,270
1685905674.3742485,267
1685905674.386158,264
1685905674.4021273,263
1685905674.4151213,264
1685905674.4274018,264
1685905674.4434018,265
1685905674.4564667,264
1685905674.4686198,264
1685905674.4844024,266
1685905674.4970546,268
1685905674.5094774,271
1685905674.5256958,272
1685905674.538355,273
1685905674.5502942,274
1685905674.56704,276
1685905674.5790572,279
1685905674.5949688,281
1685905674.6079655,282
1685905674.6199634,282
1685905674.6360447,283
1685905674.648594,285
1685905674.6610186,288
1685905674.6780493,290
1685905674.6893451,290
1685905674.7020156,290
1685905674.7185183,292
1685905674.7303193,294
1685905674.747035,296
1685905674.7589257,296
1685905674.770993,295
1685905674.7872667,295
1685905674.799815,296
1685905674.8128362,298
1685905674.8288274,300
1685905674.8411233,301
1685905674.8538256,303
1685905674.8698251,304
1685905674.8822825,310
1685905674.8984447,320
1685905674.9109063,329
1685905674.9230115,339
1685905674.9390733,348
1685905674.9520082,359
1685905674.964039,371
1685905674.9800122,383
1685905674.9930153,395
1685905675.005052,407
1685905675.0213544,419
1685905675.0333834,427
1685905675.0460458,437
1685905675.0620897,443
1685905675.0743692,447
1685905675.0910408,446
1685905675.1035714,446
1685905675.1152625,444
1685905675.1319203,442
1685905675.1439204,438
1685905675.1562452,431
1685905675.1737356,423
1685905675.1852074,415
1685905675.1975405,408
1685905675.2139838,401
1685905675.2258933,393
1685905675.2422574,383
1685905675.2549658,373
1685905675.266956,365
1685905675.2830212,359
1685905675.2959652,353
1685905675.30822,346
1685905675.32431,338
1685905675.3369691,330
1685905675.348959,324
1685905675.3652816,320
1685905675.3780143,316
1685905675.3899581,312
1685905675.4060204,306
1685905675.4189582,302
1685905675.4351006,299
1685905675.4470248,297
1685905675.4589555,294
1685905675.4759867,289
1685905675.4890494,284
1685905675.500011,278
1685905675.5169578,273
1685905675.5289545,268
1685905675.541297,261
1685905675.557958,253
1685905675.569958,243
1685905675.5863132,234
1685905675.5989575,227
1685905675.6113715,221
1685905675.6269886,215
1685905675.6399598,209
1685905675.6529896,203
1685905675.6689599,198
1685905675.680969,196
1685905675.6930304,196
1685905675.7090275,195
1685905675.721956,195
1685905675.7341266,197
1685905675.750017,201
1685905675.7630205,206
1685905675.7789679,211
1685905675.7919571,216
1685905675.8034267,219
1685905675.8201187,223
1685905675.8330958,229
1685905675.8443666,235
1685905675.860394,240
1685905675.873469,244
1685905675.885618,247
1685905675.902369,250
1685905675.914374,253
1685905675.9303818,256
1685905675.9424336,257
1685905675.9554386,256
1685905675.9716856,255
1685905675.9834857,255
1685905675.996431,256
1685905676.012367,257
1685905676.0243745,258
1685905676.037431,258
1685905676.0538898,259
1685905676.0654016,262
1685905676.0813572,265
1685905676.094191,267
1685905676.1064568,269
1685905676.1231282,269
1685905676.1353927,271
1685905676.1474316,273
1685905676.1643243,277
1685905676.1762445,280
1685905676.1883028,281
1685905676.2052488,282
1685905676.2172585,283
1685905676.2295103,286
1685905676.2462037,288
1685905676.2581987,290
1685905676.2742622,289
1685905676.2872746,289
1685905676.2992055,288
1685905676.3155622,290
1685905676.3282628,291
1685905676.3402634,291
1685905676.3565116,290
1685905676.3692124,290
1685905676.3812068,292
1685905676.3975387,297
1685905676.410201,303
1685905676.4262087,310
1685905676.438513,316
1685905676.4505339,323
1685905676.4672077,330
1685905676.4793613,335
1685905676.4912038,337
1685905676.5081997,338
1685905676.5204976,338
1685905676.532265,337
1685905676.5486865,337
1685905676.561379,337
1685905676.5733767,336
1685905676.5903835,331
1685905676.6023908,327
1685905676.6187077,322
1685905676.6303856,320
1685905676.6437426,316
1685905676.6603806,310
1685905676.671822,303
1685905676.684165,297
1685905676.7008843,292
1685905676.7130566,290
1685905676.7251036,288
1685905676.7418857,285
1685905676.7538197,283
1685905676.77015,282
1685905676.7818868,283
1685905676.7951925,285
1685905676.8108838,287
1685905676.8238945,288
1685905676.835824,288
1685905676.851929,289
1685905676.864171,292
1685905676.8768256,296
1685905676.8931074,298
1685905676.9058342,300
1685905676.9212718,301
1685905676.9338164,303
1685905676.9465098,306
1685905676.9625325,309
1685905676.975498,312
1685905676.9875045,313
1685905677.003693,314
1685905677.0155702,316
1685905677.028562,320
1685905677.044499,323
1685905677.0567672,324
1685905677.0694697,324
1685905677.0854373,325
1685905677.0975103,327
1685905677.114447,330
1685905677.1264422,332
1685905677.138509,333
1685905677.155442,333
1685905677.1675434,333
1685905677.1797564,335
1685905677.1964386,337
1685905677.2084448,339
1685905677.2207716,339
1685905677.2375057,338
1685905677.249446,339
1685905677.2655072,340
1685905677.2784507,341
1685905677.2907088,341
1685905677.3067753,340
1685905677.3195083,339
1685905677.3314853,339
1685905677.3477652,340
1685905677.3595402,341
1685905677.372445,340
1685905677.3884432,339
1685905677.4014487,338
1685905677.4134812,338
1685905677.429723,339
1685905677.4419003,340
1685905677.4582133,339
1685905677.4708776,337
1685905677.483958,337
1685905677.49894,337
1685905677.5119379,338
1685905677.524357,337
1685905677.5400143,335
1685905677.5524375,333
1685905677.5649602,332
1685905677.5809982,332
1685905677.5930018,332
1685905677.6099358,330
1685905677.6219735,328
1685905677.6342673,326
1685905677.6508374,325
1685905677.6635401,326
1685905677.6755183,325
1685905677.6918316,324
1685905677.7045355,321
1685905677.716518,319
1685905677.7335196,319
1685905677.7448661,319
1685905677.761514,319
1685905677.7734098,317
1685905677.785407,315
1685905677.8024237,314
1685905677.8144722,314
1685905677.8264902,314
1685905677.8434792,313
1685905677.8554711,312
1685905677.8674786,311
1685905677.8845406,311
1685905677.8964803,312
1685905677.9084785,313
1685905677.9254858,313
1685905677.9374747,312
1685905677.9535687,310
1685905677.9666038,310
1685905677.9786112,311
1685905677.9951882,312
1685905678.006929,312
1685905678.0198448,310
1685905678.035937,309
1685905678.0478394,309
1685905678.060838,310
1685905678.0768354,310
1685905678.08885,308
1685905678.104839,306
1685905678.1180828,305
1685905678.130074,305
1685905678.1464946,305
1685905678.1591222,304
1685905678.1718056,302
1685905678.1874118,300
1685905678.1999621,299
1685905678.2121243,299
1685905678.2290993,300
1685905678.240945,299
1685905678.252943,297
1685905678.2694814,295
1685905678.2819898,295
1685905678.2976742,295
1685905678.3106189,295
1685905678.3225973,294
1685905678.3385992,291
1685905678.351561,290
1685905678.3635068,290
1685905678.3795042,290
1685905678.3925076,291
1685905678.4045086,289
1685905678.420504,288
1685905678.4335086,287
1685905678.4491594,288
1685905678.461163,290
1685905678.4741642,292
1685905678.4901562,292
1685905678.502157,292
1685905678.5151584,293
1685905678.531155,295
1685905678.543198,297
1685905678.5552077,298
1685905678.572178,298
1685905678.5842,297
1685905678.6002223,298
1685905678.6131573,300
1685905678.6253076,301
1685905678.642158,300
1685905678.6534388,299
1685905678.666535,299
1685905678.6828363,299
1685905678.6948133,301
1685905678.7075315,301
1685905678.7233665,300
1685905678.7354884,299
1685905678.7484157,298
1685905678.7644782,299
1685905678.7770395,300
1685905678.792685,300
1685905678.8054519,299
1685905678.8178475,297
1685905678.8347197,297
1685905678.8467329,298
1685905678.8588097,298
1685905678.8757088,297
1685905678.887785,296
1685905678.9003649,295
1685905678.9167485,295
1685905678.9287238,296
1685905678.9449577,297
1685905678.9574816,297
1685905678.9700358,296
1685905678.98545,296
1685905678.9981344,296
1685905679.0102036,298
1685905679.027718,300
1685905679.0390823,299
1685905679.0520709,298
1685905679.0682847,298
1685905679.0803099,300
1685905679.0930898,302
1685905679.1084845,303
1685905679.1215158,303
1685905679.1371891,303
1685905679.1501818,305
1685905679.1621394,307
1685905679.1789696,309
1685905679.1912494,312
1685905679.2027283,311
1685905679.2197294,312
1685905679.232808,315
1685905679.2442224,318
1685905679.2599814,320
1685905679.2729793,319
1685905679.2893736,318
1685905679.301871,316
1685905679.3137813,314
1685905679.330485,313
1685905679.3423772,311
1685905679.3551419,306
1685905679.3711972,302
1685905679.383615,297
1685905679.3960576,295
1685905679.4122403,294
1685905679.424096,293
1685905679.4410226,290
1685905679.4533145,288
1685905679.4653718,288
1685905679.481001,288
1685905679.493966,290
1685905679.506406,291
1685905679.5228114,291
1685905679.5350792,291
1685905679.5470665,292
1685905679.5639617,294
1685905679.575322,297
1685905679.5881076,298
1685905679.6043327,300
1685905679.61704,301
1685905679.6327033,303
1685905679.6456838,305
1685905679.657818,308
1685905679.6737514,309
1685905679.686239,310
1685905679.6989515,311
1685905679.714905,314
1685905679.7272325,316
1685905679.7396739,317
1685905679.7564,315
1685905679.7682228,314
1685905679.7843826,314
1685905679.797102,315
1685905679.808972,318
1685905679.8255427,319
1685905679.8393593,319
1685905679.8507044,320
1685905679.8671393,322
1685905679.8791833,326
1685905679.8908427,328
1685905679.9081087,328
1685905679.9203253,327
1685905679.932258,327
1685905679.9488485,327
1685905679.9610448,327
1685905679.976886,326
1685905679.9893637,323
1685905680.0012877,320
1685905680.0186677,317
1685905680.0299158,317
1685905680.0428545,317
1685905680.0589216,319
1685905680.0719268,320
1685905680.083896,321
1685905680.0999823,325
1685905680.111858,329
1685905680.1288576,333
1685905680.1409009,334
1685905680.1536953,333
1685905680.1703281,331
1685905680.18232,329
1685905680.194255,327
1685905680.2109168,325
1685905680.2228723,321
1685905680.2356706,318
1685905680.25215,314
1685905680.2639153,313
1685905680.2798932,312
1685905680.2919934,311
1685905680.3054395,308
1685905680.321437,304
1685905680.3341236,301
1685905680.3461828,300
1685905680.3625576,300
1685905680.374863,299
1685905680.3868206,298
1685905680.403318,296
1685905680.4153466,296
1685905680.4274025,298
1685905680.4437304,300
1685905680.4562004,301
1685905680.4732254,301
1685905680.485469,301
1685905680.4975152,302
1685905680.5143507,305
1685905680.5257568,307
1685905680.5382195,308
1685905680.5547817,308
1685905680.567427,308
1685905680.579215,309
1685905680.5955536,311
1685905680.6078422,313
1685905680.6245015,312
1685905680.6371615,311
1685905680.6491253,311
1685905680.6658692,312
1685905680.6779861,314
1685905680.689868,314
1685905680.7061524,314
1685905680.7192342,313
1685905680.7313008,313
1685905680.7472732,314
1685905680.7590046,316
1685905680.772289,316
1685905680.7880719,315
1685905680.8005333,315
1685905680.8167996,315
1685905680.8288722,316
1685905680.841059,317
1685905680.8581867,316
1685905680.8702683,315
1685905680.88256,315
1685905680.8990042,315
1685905680.9116623,316
1685905680.9234478,317
1685905680.9403086,316
1685905680.952319,315
1685905680.9683564,314
1685905680.9812121,315
1685905680.994105,316
1685905681.0095737,316
1685905681.0218842,315
1685905681.0338163,313
1685905681.0505874,313
1685905681.0631151,314
1685905681.0750358,315
1685905681.0914946,314
1685905681.1033373,313
1685905681.120247,311
1685905681.1321127,311
1685905681.1448188,312
1685905681.161558,312
1685905681.1734767,312
1685905681.1854784,310
1685905681.201919,309
1685905681.2144246,309
1685905681.2264228,310
1685905681.243004,311
1685905681.2554386,310
1685905681.267221,308
1685905681.284304,307
1685905681.296046,307
1685905681.3127499,309
1685905681.325017,309
1685905681.3370204,307
1685905681.3538654,305
1685905681.366529,305
1685905681.3780582,305
1685905681.394797,306
1685905681.4071043,306
1685905681.418835,304
1685905681.4358454,303
1685905681.448027,303
1685905681.4639764,304
1685905681.4766774,305
1685905681.4893322,305
1685905681.5053387,303
1685905681.517487,303
1685905681.5295467,303
1685905681.5462797,304
1685905681.558175,305
1685905681.5701296,305
1685905681.5872808,304
1685905681.5987995,303
1685905681.6117578,304
1685905681.62758,306
1685905681.6406002,306
1685905681.6566482,305
1685905681.6692607,304
1685905681.6813214,304
1685905681.6975913,304
1685905681.709898,306
1685905681.721899,306
1685905681.7383697,305
1685905681.750773,304
1685905681.7627263,304
1685905681.7798977,305
1685905681.7912867,306
1685905681.8076608,306
1685905681.819983,304
1685905681.8325717,304
1685905681.848869,304
1685905681.8615367,305
1685905681.873686,306
1685905681.8903885,305
1685905681.902389,303
1685905681.9146817,302
1685905681.93095,302
1685905681.943105,303
1685905681.9598227,303
1685905681.97248,302
1685905681.9846766,300
1685905682.000213,300
1685905682.0132205,301
1685905682.0254579,302
1685905682.0415223,302
1685905682.0536911,300
1685905682.0663648,299
1685905682.082033,299
1685905682.0952134,300
1685905682.1073751,300
1685905682.1235788,299
1685905682.135978,297
1685905682.1519191,296
1685905682.1646082,296
1685905682.1763809,297
1685905682.1933894,297
1685905682.2058475,296
1685905682.2179785,294
1685905682.2342856,293
1685905682.2463698,293
1685905682.259041,294
1685905682.2753377,294
1685905682.2873254,293
1685905682.30405,291
1685905682.316126,291
1685905682.3282785,292
1685905682.345105,294
1685905682.3568249,299
1685905682.3688931,304
1685905682.3854203,306
1685905682.3975859,309
1685905682.410056,312
1685905682.4269087,314
1685905682.4392235,313
1685905682.4514496,311
1685905682.4679193,309
1685905682.4800813,308
1685905682.4965067,308
1685905682.509231,307
1685905682.520435,305
1685905682.5373816,302
1685905682.5494275,301
1685905682.5615256,301
1685905682.578194,301
1685905682.5902948,301
1685905682.6028888,300
1685905682.6189713,298
1685905682.631253,296
1685905682.6479344,296
1685905682.6600704,295
1685905682.6725972,293
1685905682.6886406,290
1685905682.700638,288
1685905682.7136967,287
1685905682.7303848,288
1685905682.741422,289
1685905682.7544587,290
1685905682.7710702,289
1685905682.7831125,289
1685905682.7993314,291
1685905682.8112984,294
1685905682.824235,296
1685905682.8400218,297
1685905682.8529086,297
1685905682.8652658,299
1685905682.881367,302
1685905682.893868,305
1685905682.906246,307
1685905682.9222953,308
1685905682.934277,309
1685905682.9475813,310
1685905682.962862,312
1685905682.9752614,315
1685905682.9917045,316
1685905683.0046167,316
1685905683.0165179,316
1685905683.0325847,317
1685905683.0452383,319
1685905683.0572312,321
1685905683.0740983,321
1685905683.0862837,320
1685905683.0978131,320
1685905683.1142366,321
1685905683.126995,323
1685905683.1435192,324
1685905683.1557484,323
1685905683.1680422,322
1685905683.184614,321
1685905683.1965966,322
1685905683.2086563,325
1685905683.2253828,326
1685905683.237994,326
1685905683.250169,326
1685905683.2664077,327
1685905683.2783759,329
1685905683.2906408,331
1685905683.3069139,332
1685905683.319769,331
1685905683.3354266,330
1685905683.3482234,331
1685905683.360218,332
1685905683.3771868,332
1685905683.3892422,332
1685905683.4010513,330
1685905683.4177885,328
1685905683.4302428,328
1685905683.442191,328
1685905683.4588864,328
1685905683.4705155,327
1685905683.4875557,325
1685905683.4998357,324
1685905683.5121253,324
1685905683.528806,325
1685905683.5407896,325
1685905683.5531418,323
1685905683.5694773,321
1685905683.5819001,321
1685905683.5939126,321
1685905683.6104026,322
1685905683.622273,321
1685905683.6383402,319
1685905683.651061,317
1685905683.6643538,317
1685905683.680021,317
1685905683.6922536,318
1685905683.704621,318
1685905683.7213645,316
1685905683.7333076,316
1685905683.7458403,317
1685905683.7622871,318
1685905683.7738733,319
1685905683.786214,319
1685905683.8029094,318
1685905683.8152804,318
1685905683.831564,319
1685905683.8435593,321
1685905683.8557918,321
1685905683.8718367,320
1685905683.884842,319
1685905683.897104,318
1685905683.9136171,318
1685905683.9257238,319
1685905683.9380846,318
1685905683.9540954,317
1685905683.9661,315
1685905683.9830666,315
1685905683.995103,315
1685905684.0078342,316
1685905684.024085,314
1685905684.0364032,312
1685905684.048887,311
1685905684.0648704,311
1685905684.077127,312
1685905684.0897841,312
1685905684.1056542,311
1685905684.1182525,309
1685905684.130051,308
1685905684.147325,309
1685905684.1593578,311
1685905684.1759534,311
1685905684.1881938,310
1685905684.2001846,309
1685905684.2166061,309
1685905684.229525,310
1685905684.2408323,311
1685905684.257613,310
1685905684.2701051,309
1685905684.2822762,308
1685905684.2984266,308
1685905684.3104286,309
1685905684.3269372,310
1685905684.3391087,309
1685905684.3519802,308
1685905684.368074,307
1685905684.3802285,308
1685905684.3919063,309
1685905684.4089675,310
1685905684.4209032,310
1685905684.433901,308
1685905684.4499598,308
1685905684.4619682,309
1685905684.478234,310
1685905684.490923,311
1685905684.5038314,309
1685905684.519592,308
1685905684.5322592,308
1685905684.544287,309
1685905684.5608582,310
1685905684.5733123,310
1685905684.5852003,308
1685905684.6013293,307
1685905684.6140382,307
1685905684.6259682,309
1685905684.6422935,310
1685905684.654954,310
1685905684.671207,308
1685905684.6830556,307
1685905684.6959553,308
1685905684.7121685,309
1685905684.7251136,310
1685905684.7364395,308
1685905684.7531054,307
1685905684.7653813,306
1685905684.7781184,306
1685905684.7941766,307
1685905684.8061604,307
1685905684.8226197,306
1685905684.8349621,304
1685905684.8476193,304
1685905684.8631659,305
1685905684.8757942,306
1685905684.8885899,306
1685905684.9044905,304
1685905684.91752,304
1685905684.9285593,304
1685905684.9454393,306
1685905684.95744,306
1685905684.969435,306
1685905684.986438,305
1685905684.9984372,305
1685905685.0154386,305
1685905685.0274336,307
1685905685.039438,308
1685905685.055548,307
1685905685.0687437,305
1685905685.0805476,305
1685905685.0974536,306
1685905685.1095355,307
1685905685.1217206,308
1685905685.137795,307
1685905685.1505342,306
1685905685.1667805,306
1685905685.17946,308
1685905685.1914556,309
1685905685.2074788,309
1685905685.2199974,308
1685905685.2324557,307
1685905685.2487903,308
1685905685.2604554,311
1685905685.273457,312
1685905685.2895136,312
1685905685.301801,312
1685905685.3174605,313
1685905685.3306057,315
1685905685.3428023,318
1685905685.3594506,320
1685905685.3715289,321
1685905685.3834426,322
1685905685.4005198,324
1685905685.4120498,327
1685905685.4249983,331
1685905685.4410088,335
1685905685.453317,338
1685905685.466204,341
1685905685.4819942,344
1685905685.4939997,349
1685905685.5109959,352
1685905685.5230303,354
1685905685.535587,355
1685905685.5518024,355
1685905685.5639346,355
1685905685.5765872,354
1685905685.5925848,352
1685905685.6055913,347
1685905685.617587,340
1685905685.633585,333
1685905685.6456509,327
1685905685.6619902,321
1685905685.6746755,314
1685905685.6869166,306
1685905685.703163,298
1685905685.715606,292
1685905685.7286131,288
1685905685.7440856,284
1685905685.7565298,281
1685905685.7685769,277
1685905685.7855318,273
1685905685.79759,271
1685905685.8098986,271
1685905685.8265352,271
1685905685.8385317,271
1685905685.8545897,270
1685905685.866847,270
1685905685.8795323,271
1685905685.8958478,273
1685905685.9079156,275
1685905685.920063,275
1685905685.937056,275
1685905685.9488297,276
1685905685.9615068,277
1685905685.9775023,280
1685905685.989568,282
1685905686.0055182,283
1685905686.0190644,283
1685905686.0308368,284
1685905686.0474622,286
1685905686.059812,289
1685905686.0714614,290
1685905686.088465,291
1685905686.1004632,291
1685905686.112527,292
1685905686.1294231,295
1685905686.1413507,296
1685905686.1533458,297
1685905686.170416,297
1685905686.1825671,298
1685905686.1986506,299
1685905686.2113333,301
1685905686.223333,303
1685905686.239402,304
1685905686.2523324,305
1685905686.2643304,306
1685905686.2806497,310
1685905686.2933316,313
1685905686.305365,316
1685905686.3215616,318
1685905686.3338752,320
1685905686.3495808,326
1685905686.362803,333
1685905686.3748991,343
1685905686.391556,354
1685905686.4036784,361
1685905686.4159293,370
1685905686.4325585,380
1685905686.4446557,388
1685905686.456579,396
1685905686.4735625,400
1685905686.4858685,403
1685905686.5016224,404
1685905686.5145628,406
1685905686.5266323,407
1685905686.54356,406
1685905686.5555575,403
1685905686.5675564,397
1685905686.583615,391
1685905686.595621,386
1685905686.6085858,381
1685905686.6248343,375
1685905686.6369646,368
1685905686.649893,360
1685905686.6658323,353
1685905686.67785,348
1685905686.6941545,342
1685905686.706913,334
1685905686.7188475,323
1685905686.7356546,309
1685905686.7475119,297
1685905686.7596974,285
1685905686.776117,273
1685905686.7888563,261
1685905686.8009145,249
1685905686.8171892,240
1685905686.8299153,235
1685905686.8461533,232
1685905686.858827,230
1685905686.8708234,227
1685905686.8869803,225
1685905686.8988142,226
1685905686.911821,229
1685905686.928176,232
1685905686.9398806,235
1685905686.9528825,238
1685905686.968901,240
1685905686.9811487,244
1685905686.9938278,249
1685905687.0099854,254
1685905687.021886,257
1685905687.038943,260
1685905687.0509288,261
1685905687.062984,265
1685905687.078875,269
1685905687.0918744,272
1685905687.1038315,274
1685905687.1208134,275
1685905687.1328127,277
1685905687.1448872,278
1685905687.161667,281
1685905687.173829,283
1685905687.1898084,284
1685905687.2018683,284
1685905687.2148108,285
1685905687.2308629,287
1685905687.2431962,289
1685905687.2558098,291
1685905687.2718077,291
1685905687.2838113,291
1685905687.2968094,292
1685905687.3128085,293
1685905687.325568,295
1685905687.340981,296
1685905687.3539803,296
1685905687.3660321,296
1685905687.3825195,296
1685905687.3949783,298
1685905687.4069896,298
1685905687.4231055,297
1685905687.4350924,295
1685905687.448096,293
1685905687.4641051,293
1685905687.4760938,293
1685905687.4890974,293
1685905687.5056422,292
1685905687.5170956,290
1685905687.5342772,289
1685905687.5465746,290
1685905687.558273,291
1685905687.5752802,293
1685905687.5872743,293
1685905687.5992777,293
1685905687.6162772,295
1685905687.6280873,298
1685905687.6400833,300
1685905687.6570873,303
1685905687.6690807,303
1685905687.6850917,304
1685905687.6980875,306
1685905687.710088,309
1685905687.7261913,311
1685905687.7391884,312
1685905687.7511902,312
1685905687.767188,312
1685905687.7791908,314
1685905687.792192,317
1685905687.8081903,318
1685905687.821197,319
1685905687.8331957,319
1685905687.8491926,319
1685905687.8611922,322
1685905687.878188,324
1685905687.8901868,326
1685905687.9027662,326
1685905687.919258,325
1685905687.9314356,325
1685905687.9431405,325
1685905687.9601996,326
1685905687.972141,325
1685905687.9844391,323
1685905688.0012002,321
1685905688.0131385,321
1685905688.029141,321
1685905688.0421405,321
1685905688.0545108,320
1685905688.0701876,318
1685905688.0826612,317
1685905688.095182,317
1685905688.1111884,318
1685905688.1231406,319
1685905688.1361377,317
1685905688.152135,315
1685905688.1651442,314
1685905688.1811447,315
1685905688.1931422,315
1685905688.206141,315
1685905688.2221386,313
1685905688.2341387,312
1685905688.246139,312
1685905688.263194,312
1685905688.2751439,313
1685905688.287142,312
1685905688.3042066,310
1685905688.3162117,309
1685905688.3282068,308
1685905688.3451998,309
1685905688.3572025,310
1685905688.373138,308
1685905688.3861427,307
1685905688.3981385,306
1685905688.4141388,306
1685905688.4269307,307
1685905688.4389782,308
1685905688.455932,307
1685905688.4679778,305
1685905688.4799883,305
1685905688.4959424,306
1685905688.5089843,307
1685905688.5249848,308
1685905688.5369842,307
1685905688.5499284,306
1685905688.5656323,306
1685905688.5778878,307
1685905688.590889,308
1685905688.6069345,308
1685905688.6190615,307
1685905688.6319456,305
1685905688.6478891,306
1685905688.659947,307
1685905688.671947,308
1685905688.6888974,307
1685905688.7009063,306
1685905688.717894,306
1685905688.7298968,306
1685905688.7429073,308
1685905688.7588954,308
1685905688.7709029,308
1685905688.7829084,306
1685905688.7998939,306
1685905688.8118923,307
1685905688.824468,308
1685905688.8407402,308
1685905688.8524954,307
1685905688.8688152,306
1685905688.881974,306
1685905688.8935518,306
1685905688.9105623,307
1685905688.9228537,307
1685905688.935131,305
1685905688.9511402,304
1685905688.9631884,304
1685905688.976197,306
1685905688.9921355,306
1685905689.0041347,306
1685905689.0202038,305
1685905689.0331917,304
1685905689.04513,305
1685905689.0612104,307
1685905689.0741918,307
1685905689.0861425,306
1685905689.103134,305
1685905689.1151345,305
1685905689.1271892,306
1685905689.1431909,307
1685905689.1561537,307
1685905689.168188,306
1685905689.1841908,305
1685905689.1971877,306
1685905689.2132068,307
1685905689.2255206,308
1685905689.2378156,308
1685905689.2538457,307
1685905689.2668588,306
1685905689.2782547,306
1685905689.2954397,308
1685905689.307318,309
1685905689.3192487,308
1685905689.3362505,307
1685905689.3483102,307
1685905689.3643167,308
1685905689.377257,310
1685905689.3892634,310
1685905689.4062505,309
1685905689.4185932,308
1685905689.430422,308
1685905689.4468572,309
1685905689.4594667,311
1685905689.4714043,310
1685905689.487467,309
1685905689.5004725,308
1685905689.512412,308
1685905689.5291078,310
1685905689.541111,311
1685905689.5573335,310
1685905689.5701907,309
1685905689.5820343,309
1685905689.5983589,309
1685905689.6110315,311
1685905689.623033,312
1685905689.6399355,311
1685905689.651698,310
1685905689.6645353,310
1685905689.6803522,311
1685905689.6926675,312
1685905689.7089489,312
1685905689.7213485,311
1685905689.7333646,310
1685905689.7500842,310
1685905689.7618306,311
1685905689.7741096,313
1685905689.79125,313
1685905689.803615,312
1685905689.815509,311
1685905689.832028,311
1685905689.8445504,313
1685905689.8569014,314
1685905689.8728476,313
1685905689.8848886,312
1685905689.9012213,311
1685905689.9141514,311
1685905689.9261012,313
1685905689.9420996,313
1685905689.9551032,312
1685905689.967103,310
1685905689.9831638,309
1685905689.9951053,310
1685905690.008103,311
1685905690.0243974,311
1685905690.0368888,309
1685905690.052875,308
1685905690.064938,307
1685905690.0777898,308
1685905690.0937274,310
1685905690.106709,310
1685905690.1187136,308
1685905690.1349685,307
1685905690.1470237,308
1685905690.1590972,309
1685905690.175999,310
1685905690.1879818,310
1685905690.2039654,308
1685905690.2169647,308
1685905690.2289636,308
1685905690.24503,310
1685905690.2579699,310
1685905690.2699661,310
1685905690.2869682,308
1685905690.2989676,308
1685905690.310966,309
1685905690.3274343,311
1685905690.339492,311
1685905690.3514864,310
1685905690.3684287,309
1685905690.3804247,310
1685905690.3964224,311
1685905690.4096265,313
1685905690.421581,313
1685905690.4374394,311
1685905690.4503798,311
1685905690.4623826,311
1685905690.4784124,312
1685905690.4913757,313
1685905690.5033739,312
1685905690.5201852,311
1685905690.5323749,310
1685905690.5483775,310
1685905690.5603845,312
1685905690.5733836,312
1685905690.5894976,311
1685905690.6015081,310
1685905690.6143763,309
1685905690.6303337,310
1685905690.6434753,311
1685905690.6554575,311
1685905690.6712072,310
1685905690.684251,309
1685905690.696206,309
1685905690.7129958,310
1685905690.7249165,311
1685905690.74093,311
1685905690.7529256,309
1685905690.766164,308
1685905690.7821531,309
1685905690.7941072,310
1685905690.8071306,311
1685905690.8234186,311
1685905690.835531,310
1685905690.8478618,310
1685905690.8641756,312
1685905690.8758864,314
1685905690.8927517,316
1685905690.9054356,317
1685905690.917389,317
1685905690.9339125,319
1685905690.9461524,324
1685905690.9584353,331
1685905690.975476,337
1685905690.987144,342
1685905690.999565,347
1685905691.0156434,351
1685905691.0280669,356
1685905691.0442362,358
1685905691.0568948,358
1685905691.0682993,354
1685905691.0851846,348
1685905691.097206,343
1685905691.1100197,337
1685905691.1262057,332
1685905691.1385093,325
1685905691.1510737,318
1685905691.167077,313
1685905691.1791127,311
1685905691.1917512,311
1685905691.20911,310
1685905691.220118,309
1685905691.2361674,308
1685905691.2491088,309
1685905691.2617757,312
1685905691.277149,313
1685905691.2901614,314
1685905691.3022552,312
1685905691.318272,310
1685905691.3306928,307
1685905691.3430154,306
1685905691.3595355,304
1685905691.3716505,301
1685905691.3879564,297
1685905691.4009395,294
1685905691.412986,293
1685905691.4295473,293
1685905691.4417586,292
1685905691.454091,290
1685905691.4698322,288
1685905691.4829526,287
1685905691.4951031,287
1685905691.5110073,289
1685905691.5234942,290
1685905691.5351741,289
1685905691.5519981,288
1685905691.5643172,289
1685905691.5811684,291
1685905691.5933447,293
1685905691.6057484,294
1685905691.6213012,293
1685905691.6341183,293
1685905691.646293,294
1685905691.6627326,296
1685905691.675158,298
1685905691.6872442,298
1685905691.7041032,297
1685905691.7161143,296
1685905691.7321112,298
1685905691.7460399,300
1685905691.7570376,301
1685905691.7737696,301
1685905691.7858121,301
1685905691.7979894,301
1685905691.814227,303
1685905691.826163,304
1685905691.8391633,305
1685905691.8551633,305
1685905691.8675761,304
1685905691.8833554,303
1685905691.8964355,304
1685905691.9084768,305
1685905691.924571,305
1685905691.9372346,304
1685905691.9492943,302
1685905691.965312,302
1685905691.9779084,304
1685905691.9905508,305
1685905692.0071251,305
1685905692.0191755,304
1685905692.031167,303
1685905692.0472834,304
1685905692.0593417,306
1685905692.0768132,306
1685905692.0888557,306
1685905692.1012685,305
1685905692.1170964,304
1685905692.1300268,305
1685905692.142024,307
1685905692.158645,307
1685905692.1707194,306
1685905692.1833398,305
1685905692.1990206,305
1685905692.2113597,306
1685905692.2277756,308
1685905692.2403827,308
1685905692.2523763,307
1685905692.2682886,306
1685905692.2814295,306
1685905692.2931325,308
1685905692.3091965,309
1685905692.3222935,309
1685905692.3347383,308
1685905692.350553,307
1685905692.363263,308
1685905692.3753083,309
1685905692.3913074,310
1685905692.4039285,310
1685905692.4200516,308
1685905692.4330957,308
1685905692.4448843,309
1685905692.4615703,310
1685905692.4736655,311
1685905692.4857793,310
1685905692.502508,308
1685905692.5148122,308
1685905692.5263443,309
1685905692.543498,311
1685905692.5557094,311
1685905692.5721323,310
1685905692.5841792,309
1685905692.5970194,309
1685905692.6132464,310
1685905692.625016,311
1685905692.6374414,311
1685905692.6533847,309
1685905692.6663027,308
1685905692.6785686,308
1685905692.6950696,310
1685905692.7072282,311
1685905692.7239664,310
1685905692.7351618,309
1685905692.749933,308
1685905692.76393,309
1685905692.776086,311
1685905692.7891762,311
1685905692.8052506,310
1685905692.8181596,308
1685905692.8301604,308
1685905692.8467817,309
1685905692.8594146,310
1685905692.8714154,310
1685905692.8874888,308
1685905692.9000964,308
1685905692.916156,308
1685905692.9285445,309
1685905692.9410746,309
1685905692.9572136,309
1685905692.969191,307
1685905692.981204,306
1685905692.9983046,306
1685905693.0102668,308
1685905693.02297,308
1685905693.0395436,307
1685905693.0511677,305
1685905693.0676565,304
1685905693.0802176,305
1685905693.092224,306
1685905693.108685,306
1685905693.121503,304
1685905693.1332834,303
1685905693.1494966,302
1685905693.1619196,303
1685905693.1738675,304
1685905693.1906135,303
1685905693.2030797,302
1685905693.2151327,301
1685905693.2313128,301
1685905693.2441611,302
1685905693.2602904,303
1685905693.272544,303
1685905693.284147,301
1685905693.3007689,300
1685905693.3132482,300
1685905693.3253622,301
1685905693.3419247,302
1685905693.3543723,300
1685905693.36703,298
1685905693.3832073,298
1685905693.3953452,298
1685905693.411396,299
1685905693.424114,299
1685905693.436077,298
1685905693.4520721,296
1685905693.464761,296
1685905693.47739,297
1685905693.4930942,298
1685905693.5057747,298
1685905693.5185778,296
1685905693.5342095,295
1685905693.5471833,295
1685905693.563227,296
1685905693.575542,296
1685905693.5879738,295
1685905693.6043613,294
1685905693.6164331,293
1685905693.628182,293
1685905693.6452608,294
1685905693.6569526,294
1685905693.6702957,293
1685905693.6862566,291
1685905693.699282,291
1685905693.7102969,292
1685905693.7272801,293
1685905693.7394748,293
1685905693.7549481,291
1685905693.7678828,290
1685905693.7798882,289
1685905693.7967544,290
1685905693.8092334,291
1685905693.8213563,290
1685905693.8374898,288
1685905693.8501797,288
1685905693.8622534,288
1685905693.878592,289
1685905693.8904343,290
1685905693.9072182,289
1685905693.9194448,287
1685905693.9315157,286
1685905693.9481008,287
1685905693.9609373,288
1685905693.973113,288
1685905693.9891088,287
1685905694.0010705,285
1685905694.013247,285
1685905694.0302913,286
1685905694.0421066,287
1685905694.054849,287
1685905694.0708702,286
1685905694.0831325,286
1685905694.0998776,286
1685905694.112148,287
1685905694.1243517,289
1685905694.1406791,289
1685905694.1531618,289
1685905694.1651864,289
1685905694.181191,290
1685905694.1942508,293
1685905694.2062886,295
1685905694.2230685,295
1685905694.235111,295
1685905694.2509773,296
1685905694.2639053,298
1685905694.2759075,301
1685905694.2922034,303
1685905694.304204,304
1685905694.3169637,304
1685905694.3335404,305
1685905694.3452435,307
1685905694.3572376,308
1685905694.3744307,309
1685905694.3867757,309
1685905694.4029057,309
1685905694.4149492,311
1685905694.4278586,315
1685905694.4442036,319
1685905694.4562316,322
1685905694.468229,324
1685905694.4851553,327
1685905694.4972942,331
1685905694.50929,336
1685905694.5260625,340
1685905694.5391808,343
1685905694.550735,345
1685905694.5667846,348
1685905694.5790749,352
1685905694.5952866,356
1685905694.608074,359
1685905694.6200466,360
1685905694.636349,360
1685905694.6490374,360
1685905694.6612418,361
1685905694.677324,362
1685905694.689552,361
1685905694.7015462,359
1685905694.7178757,356
1685905694.7309434,355
1685905694.7461221,355
1685905694.7594235,355
1685905694.7714672,353
1685905694.7874815,350
1685905694.8002076,347
1685905694.812585,346
1685905694.828936,346
1685905694.8413453,345
1685905694.8537023,342
1685905694.8693037,339
1685905694.8821504,337
1685905694.8944993,336
1685905694.9109068,336
1685905694.9235168,336
1685905694.9400854,333
1685905694.9512336,332
1685905694.9641926,330
1685905694.9799616,331
1685905694.992659,331
1685905695.0050104,329
1685905695.0216792,327
1685905695.033866,324
1685905695.0453486,323
1685905695.0623646,323
1685905695.0749896,322
1685905695.0907898,320
1685905695.103463,317
1685905695.1154652,315
1685905695.1320865,313
1685905695.1440065,313
1685905695.1562252,312
1685905695.17302,310
1685905695.1847892,307
1685905695.19765,305
1685905695.2136955,305
1685905695.225754,305
1685905695.2392015,304
1685905695.2553988,302
1685905695.2665591,300
1685905695.2831023,299
1685905695.2955902,299
1685905695.307603,300
1685905695.3245819,299
1685905695.337044,298
1685905695.3491282,297
1685905695.365339,297
1685905695.377343,298
1685905695.3903375,298
1685905695.406559,298
1685905695.4186814,296
1685905695.4349318,295
1685905695.4469793,296
1685905695.459976,297
1685905695.4762142,298
1685905695.4880378,297
1685905695.5005207,295
1685905695.5170648,295
1685905695.52904,296
1685905695.5419014,297
1685905695.5582404,297
1685905695.569953,296
1685905695.5859523,294
1685905695.5990837,295
1685905695.611251,296
1685905695.6277652,297
1685905695.6401587,297
1685905695.6520164,296
1685905695.6681247,295
1685905695.6811945,296
1685905695.693234,297
1685905695.7096279,298
1685905695.7221265,298
1685905695.7340984,297
1685905695.7497544,297
1685905695.7628467,298
1685905695.7789435,300
1685905695.7916334,301
1685905695.8037562,300
1685905695.8201742,299
1685905695.832768,299
1685905695.8448188,301
1685905695.8613617,302
1685905695.8734796,302
1685905695.8856235,301
1685905695.9018185,300
1685905695.9138682,301
1685905695.9301538,302
1685905695.9428594,303
1685905695.9548697,303
1685905695.9718943,302
1685905695.983941,302
1685905695.9958797,302
1685905696.0129373,303
1685905696.0249429,304
1685905696.0370946,304
1685905696.0530345,303
1685905696.0660744,302
1685905696.0780833,303
1685905696.0940733,304
1685905696.1070797,305
1685905696.1230087,304
1685905696.1350527,304
1685905696.1478508,304
1685905696.1638515,305
1685905696.1758597,307
1685905696.1889277,307
1685905696.2050443,307
1685905696.2174718,306
1685905696.229848,306
1685905696.246027,307
1685905696.25819,308
1685905696.2749114,308
1685905696.286851,307
1685905696.2996323,305
1685905696.3156981,305
1685905696.3274977,307
1685905696.3404984,307
1685905696.3568332,307
1685905696.3689575,306
1685905696.3815577,305
1685905696.397583,306
1685905696.4099205,308
1685905696.4255548,308
1685905696.438546,307
1685905696.4505396,306
1685905696.4675293,306
1685905696.479544,307
1685905696.4918523,308
1685905696.5089488,308
1685905696.5207875,307
1685905696.5325701,306
1685905696.5494244,307
1685905696.5615475,308
1685905696.5732772,309
1685905696.5902953,309
1685905696.6023443,308
1685905696.6182463,307
1685905696.6312997,308
1685905696.6432922,310
1685905696.659239,312
1685905696.672303,312
1685905696.6842906,311
1685905696.7008092,312
1685905696.7132998,313
1685905696.7253,315
1685905696.7415473,317
1685905696.7542982,316
1685905696.7702591,315
1685905696.7822742,315
1685905696.7951992,317
1685905696.8112757,318
1685905696.823541,319
1685905696.835497,318
1685905696.8522577,317
1685905696.864255,317
1685905696.8765411,319
1685905696.8932014,320
1685905696.9057944,321
1685905696.921884,319
1685905696.9340084,319
1685905696.9463913,320
1685905696.962284,322
1685905696.975223,324
1685905696.9872918,325
1685905697.0035582,325
1685905697.0162256,325
1685905697.0290093,326
1685905697.0450015,327
1685905697.0570092,326
1685905697.0690038,322
1685905697.0859349,317
1685905697.0980165,313
1685905697.113997,309
1685905697.126566,306
1685905697.1385758,302
1685905697.1549551,297
1685905697.1676486,294
1685905697.179686,292
1685905697.1966295,291
1685905697.2086418,292
1685905697.2208278,290
1685905697.2370105,288
1685905697.2496982,287
1685905697.2656338,288
1685905697.2776315,289
1685905697.2907102,290
1685905697.306955,290
1685905697.3186305,289
1685905697.3322165,290
1685905697.3478987,291
1685905697.3606114,293
1685905697.371886,295
1685905697.3886282,294
1685905697.4009314,294
1685905697.4126387,295
1685905697.4296222,296
1685905697.4419312,298
1685905697.4579444,299
1685905697.4710102,298
1685905697.4830017,297
1685905697.498942,297
1685905697.5118005,298
1685905697.523784,299
1685905697.5397246,299
1685905697.5528247,298
1685905697.565081,298
1685905697.5810847,298
1685905697.5937128,300
1685905697.6099987,301
1685905697.622087,300
1685905697.6347156,298
1685905697.6511703,297
1685905697.6631773,298
1685905697.675166,299
1685905697.6914952,298
1685905697.7041616,297
1685905697.7161658,296
1685905697.7331786,297
1685905697.7452402,299
1685905697.7571955,301
1685905697.77313,303
1685905697.7861316,304
1685905697.802457,306
1685905697.8151977,312
1685905697.8271372,319
1685905697.8437352,328
1685905697.8554816,335
1685905697.868169,341
1685905697.8843799,348
1685905697.8964906,354
1685905697.9092326,362
1685905697.9256377,366
1685905697.9377732,369
1685905697.9541714,370
1685905697.9663634,372
1685905697.9785655,374
1685905697.9952385,374
1685905698.0072367,373
1685905698.0195572,371
1685905698.0356019,366
1685905698.0482433,364
1685905698.0607028,362
1685905698.0770798,360
1685905698.08906,356
1685905698.105523,350
1685905698.1182,345
1685905698.1302657,341
1685905698.147189,338
1685905698.1591885,335
1685905698.171253,331
1685905698.1872528,325
1685905698.1992226,321
1685905698.2121847,316
1685905698.2282412,311
1685905698.2402475,306
1685905698.2523582,298
1685905698.2693782,288
1685905698.2813487,280
1685905698.298076,273
1685905698.3100243,268
1685905698.3226316,263
1685905698.3386927,258
1685905698.3506927,253
1685905698.3637102,250
1685905698.3801453,249
1685905698.3926978,249
1685905698.4047625,249
1685905698.4209573,249
1685905698.4329314,249
1685905698.4494586,251
1685905698.4617772,254
1685905698.4744554,257
1685905698.4907522,260
1685905698.5027514,261
1685905698.5154874,263
1685905698.5314927,267
1685905698.543759,271
1685905698.5557926,274
1685905698.5728137,276
1685905698.5847757,277
1685905698.5971127,279
1685905698.6131215,283
1685905698.625827,287
1685905698.6417527,290
1685905698.6542609,291
1685905698.6664872,292
1685905698.6824355,294
1685905698.695518,297
1685905698.7084494,300
1685905698.7245085,301
1685905698.7358434,301
1685905698.748158,301
1685905698.7653592,303
1685905698.7774196,306
1685905698.793386,307
1685905698.805412,308
1685905698.8184137,307
1685905698.8346462,307
1685905698.8465085,308
1685905698.8591006,309
1685905698.8755698,310
1685905698.8874724,310
1685905698.900323,309
1685905698.9162378,309
1685905698.9292436,310
1685905698.9452488,312
1685905698.9572,312
1685905698.969984,311
1685905698.986163,310
1685905698.997968,310
1685905699.0109103,312
1685905699.0273597,313
1685905699.0393362,313
1685905699.051297,311
1685905699.0682867,310
1685905699.080349,310
1685905699.0923529,311
1685905699.109354,312
1685905699.1214278,312
1685905699.1372902,310
1685905699.1493464,310
1685905699.1623607,311
1685905699.1783512,312
1685905699.1909094,313
1685905699.2035046,312
1685905699.2195466,312
1685905699.2314858,313
1685905699.2444208,315
1685905699.2607994,317
1685905699.2729917,319
1685905699.2892225,320
1685905699.3019445,320
1685905699.3139856,321
1685905699.3301382,324
1685905699.3423905,326
1685905699.3551452,327
1685905699.3710856,327
1685905699.384146,327
1685905699.39542,329
1685905699.4121528,330
1685905699.4240763,331
1685905699.4371421,329
1685905699.4531443,327
1685905699.465079,326
1685905699.4816122,325
1685905699.4941554,326
1685905699.5064201,326
1685905699.5230737,324
1685905699.535153,322
1685905699.5472612,321
1685905699.5633967,321
1685905699.576149,321
1685905699.5885742,320
1685905699.604435,318
1685905699.6170902,316
1685905699.6331453,315
1685905699.6451392,315
1685905699.658079,315
1685905699.6742456,314
1685905699.6860776,312
1685905699.6990807,310
1685905699.7150757,310
1685905699.7271461,311
1685905699.739407,312
1685905699.7561972,311
1685905699.7686558,309
1685905699.7846768,308
1685905699.7975802,309
1685905699.8093958,310
1685905699.8253999,310
1685905699.838393,309
1685905699.850451,308
1685905699.8663943,307
1685905699.8793278,308
1685905699.891402,310
1685905699.9076054,310
1685905699.919655,309
1685905699.932417,308
1685905699.9486337,308
1685905699.9603293,310
1685905699.9773302,311
1685905699.989345,310
1685905700.001663,309
1685905700.0181851,309
1685905700.0303128,309
1685905700.0433004,310
1685905700.0593808,311
1685905700.0716352,310
1685905700.0833647,309
1685905700.1003628,308
1685905700.1126606,309
1685905700.12833,310
1685905700.1411345,311
1685905700.1531167,310
1685905700.17015,308
1685905700.18216,308
1685905700.194435,309
1685905700.2111075,311
1685905700.2231858,311
1685905700.2351177,309
1685905700.2514012,308
1685905700.2639484,309
1685905700.279987,310
1685905700.292126,311
1685905700.304555,311
1685905700.321541,309
1685905700.3335395,308
1685905700.3455372,309
1685905700.36195,310
1685905700.3749895,311
1685905700.3870034,310
1685905700.4039633,308
1685905700.415241,308
1685905700.4280076,308
1685905700.44425,310
1685905700.456933,310
1685905700.4730113,309
1685905700.4852493,308
1685905700.4971583,308
1685905700.5139966,309
1685905700.5261874,310
1685905700.5389638,310
1685905700.5549262,309
1685905700.5671654,307
1685905700.5792463,307
1685905700.59529,308
1685905700.6083457,310
1685905700.6246386,309
1685905700.6362662,308
1685905700.6493278,307
1685905700.665329,307
1685905700.6775868,308
1685905700.6902666,309
1685905700.7064738,308
1685905700.719229,307
1685905700.7312386,307
1685905700.7472024,308
1685905700.7594557,309
1685905700.7722275,310
1685905700.7881408,309
1685905700.8001945,307
1685905700.817193,307
1685905700.8291352,308
1685905700.8412914,309
1685905700.8581662,309
1685905700.8701558,308
1685905700.8823464,306
1685905700.8983345,306
1685905700.9111814,308
1685905700.9236264,309
1685905700.9399168,308
1685905700.9518466,307
1685905700.9675822,306
1685905700.980605,307
1685905700.9926257,308
1685905701.0096235,309
1685905701.0219114,308
1685905701.0341725,307
1685905701.0501463,307
1685905701.0630944,308
1685905701.0751503,309
1685905701.0911632,310
1685905701.1040967,309
1685905701.1190894,308
1685905701.1320963,308
1685905701.1444302,309
1685905701.1610916,310
1685905701.1730952,311
1685905701.1851542,309
1685905701.202163,308
1685905701.2141924,308
1685905701.2264187,309
1685905701.2430954,310
1685905701.2551558,309
1685905701.267802,308
1685905701.2843196,307
1685905701.2962472,308
1685905701.3129473,309
1685905701.3252282,310
1685905701.3367176,309
1685905701.3535655,308
1685905701.36558,308
1685905701.378974,308
1685905701.3953583,310
1685905701.4070902,310
1685905701.4191415,309
1685905701.4351537,308
1685905701.4475942,308
1685905701.463338,308
1685905701.4763496,310
1685905701.488342,310
1685905701.5051506,308
1685905701.5170739,307
1685905701.5299277,307
1685905701.5458653,309
1685905701.5584323,310
1685905701.5703964,309
1685905701.5868456,308
1685905701.59925,308
1685905701.6111934,308
1685905701.628005,310
1685905701.6396704,311
1685905701.6570187,310
1685905701.668546,309
1685905701.6807013,309
1685905701.697524,310
1685905701.7093725,311
1685905701.722242,312
1685905701.7382126,311
1685905701.750946,310
1685905701.763083,310
1685905701.7796805,311
1685905701.791088,312
1685905701.8090193,312
1685905701.8200867,310
1685905701.8320851,309
1685905701.8490174,308
1685905701.861678,310
1685905701.8730793,310
1685905701.890023,310
1685905701.9020882,308
1685905701.9140813,308
1685905701.9310231,308
1685905701.9430835,310
1685905701.9590771,310
1685905701.9712968,310
1685905701.9842956,308
1685905702.0006373,308
1685905702.0127156,309
1685905702.0256326,310
1685905702.041319,311
1685905702.0542688,310
1685905702.0659761,308
1685905702.0822353,308
1685905702.095092,309
1685905702.1071792,310
1685905702.1237268,310
1685905702.1361475,309
1685905702.1515157,308
1685905702.1642509,309
1685905702.1771462,310
1685905702.193281,311
1685905702.205226,310
1685905702.2178001,309
1685905702.2342324,308
1685905702.2457907,309
1685905702.2591279,310
1685905702.275174,311
1685905702.2875023,310
1685905702.3036053,309
1685905702.3176033,308
1685905702.327989,309
1685905702.34478,311
1685905702.35686,312
1685905702.369013,311
1685905702.3856454,310
1685905702.3981209,311
1685905702.4103177,313
1685905702.426172,315
1685905702.4392385,316
1685905702.4513478,317
1685905702.4672556,318
1685905702.4792535,322
1685905702.4961708,327
1685905702.5081747,332
1685905702.5203261,334
1685905702.5372028,335
1685905702.549057,335
1685905702.562059,335
1685905702.578292,335
1685905702.5905356,334
1685905702.6029232,330
1685905702.6191928,325
1685905702.631657,321
1685905702.64792,318
1685905702.6599104,316
1685905702.6727827,312
1685905702.6889043,308
1685905702.7009945,304
1685905702.7137833,301
1685905702.7300513,301
1685905702.7422016,300
1685905702.7542696,298
1685905702.7710998,296
1685905702.7831554,294
1685905702.7957997,293
1685905702.8118038,295
1685905702.8236976,296
1685905702.8401825,295
1685905702.852404,294
1685905702.8650303,293
1685905702.8812585,294
1685905702.8942285,296
1685905702.9051797,297
1685905702.9223177,296
1685905702.9345257,295
1685905702.9471717,295
1685905702.9634907,297
1685905702.975549,298
1685905702.9911737,299
1685905703.0041115,299
1685905703.0161712,298
1685905703.0331914,299
1685905703.0451276,300
1685905703.0578082,301
1685905703.0742428,301
1685905703.085865,300
1685905703.0982354,300
1685905703.1152518,300
1685905703.127199,302
1685905703.1437795,303
1685905703.1551447,303
1685905703.1683776,302
1685905703.1843774,301
1685905703.1965885,302
1685905703.209259,304
1685905703.225262,305
1685905703.237964,304
1685905703.2499917,302
1685905703.2661438,302
1685905703.2790098,303
1685905703.2911065,305
1685905703.3071442,305
1685905703.3192117,305
1685905703.3361087,303
1685905703.3477364,304
1685905703.360438,305
1685905703.3772147,306
1685905703.3885467,306
1685905703.401611,305
1685905703.4182153,304
1685905703.43032,304
1685905703.442514,306
1685905703.458852,307
1685905703.4711382,307
1685905703.4878526,307
1685905703.4998477,308
1685905703.5127733,309
1685905703.5293777,312
1685905703.5406456,314
1685905703.553122,313
1685905703.569258,313
1685905703.581901,312
1685905703.5935214,313
1685905703.6102602,314
1685905703.6228461,314
1685905703.6352487,312
1685905703.6514335,310
1685905703.6630993,310
1685905703.6802838,310
1685905703.692006,311
1685905703.7043738,310
1685905703.721238,308
1685905703.7342052,307
1685905703.745206,307
1685905703.7612803,308
1685905703.7743685,309
1685905703.7864788,308
1685905703.8022215,306
1685905703.8147757,305
1685905703.8337734,305
1685905703.843434,307
1685905703.8563159,307
1685905703.8720264,306
1685905703.8850956,305
1685905703.8972192,305
1685905703.913036,306
1685905703.9255147,308
1685905703.937665,308
1685905703.9543138,307
1685905703.9662378,306
1685905703.9830933,306
1685905703.9949894,307
1685905704.0072136,308
1685905704.0242252,308
1685905704.0364192,306
1685905704.0482187,305
1685905704.0646732,305
1685905704.0766697,307
1685905704.0896087,307
1685905704.106213,306
1685905704.118123,305
1685905704.130124,304
1685905704.146388,304
1685905704.1591449,306
1685905704.175623,306
1685905704.1876,305
1685905704.2006416,304
1685905704.2160103,304
1685905704.2284534,305
1685905704.2412615,306
1685905704.2579303,306
1685905704.2701778,305
1685905704.281505,304
1685905704.2983665,304
1685905704.310743,306
1685905704.3267338,307
1685905704.3387341,307
1685905704.352093,306
1685905704.3681102,305
1685905704.3801107,305
1685905704.392937,306
1685905704.4086783,306
1685905704.4216576,306
1685905704.4340074,304
1685905704.4495263,304
1685905704.4626663,304
1685905704.4781094,306
1685905704.4911976,306
1685905704.5033948,305
1685905704.520007,304
1685905704.5320807,303
1685905704.5440722,304
1685905704.5605485,305
1685905704.5731847,306
1685905704.58523,305
1685905704.601525,304
1685905704.6141253,304
1685905704.6263015,305
1685905704.6422465,306
1685905704.6542447,306
1685905704.670454,305
1685905704.683434,304
1685905704.6962638,305
1685905704.7122445,306
1685905704.7238894,307
1685905704.737093,307
1685905704.7542849,305
1685905704.7652984,305
1685905704.7774475,306
1685905704.7941628,307
1685905704.8063238,308
1685905704.8224468,307
1685905704.835328,306
1685905704.8473208,305
1685905704.8639548,306
1685905704.8762705,308
1685905704.8880503,308
1685905704.9041111,307
1685905704.9171383,306
1685905704.9292011,306
1685905704.9454975,308
1685905704.9572465,309
1685905704.9707778,309
1685905704.986819,308
1685905704.9984004,307
1685905705.0153196,308
1685905705.0277207,309
1685905705.040182,310
1685905705.0561755,310
1685905705.068507,308
1685905705.0810556,307
1685905705.0966964,308
1685905705.1087263,309
1685905705.121935,309
1685905705.1378634,309
1685905705.150774,307
1685905705.1668708,307
1685905705.1792524,308
1685905705.190722,309
1685905705.2075894,310
1685905705.2195365,309
1685905705.2325196,307
1685905705.2490356,307
1685905705.260952,309
1685905705.2732918,310
1685905705.289902,309
1685905705.3021512,308
1685905705.3183336,307
1685905705.3308897,308
1685905705.3428876,309
1685905705.359399,310
1685905705.3716838,309
1685905705.3842654,308
1685905705.399866,307
1685905705.411936,308
1685905705.424862,310
1685905705.441308,310
1685905705.4533117,309
1685905705.4662402,308
1685905705.482244,308
1685905705.4941568,309
1685905705.5103672,310
1685905705.5233676,311
1685905705.5348756,310
1685905705.5512779,308
1685905705.56383,308
1685905705.5761797,310
1685905705.593141,311
1685905705.6047735,311
1685905705.61743,309
1685905705.6333234,309
1685905705.6460395,309
1685905705.6620493,311
1685905705.674137,312
1685905705.687128,311
1685905705.7032897,309
1685905705.7160025,309
1685905705.7275233,309
1685905705.7446558,311
1685905705.7565749,311
1685905705.768943,310
1685905705.7853606,309
1685905705.7979636,309
1685905705.8135767,311
1685905705.8263843,312
1685905705.838544,312
1685905705.8548443,311
1685905705.8672123,310
1685905705.8795962,311
1685905705.895389,312
1685905705.9082615,313
1685905705.9208055,312
1685905705.937174,311
1685905705.9492323,310
1685905705.960946,311
1685905705.9780612,311
1685905705.9904428,312
1685905706.006314,311
1685905706.0187647,310
1685905706.0311017,309
1685905706.0476992,310
1685905706.060062,311
1685905706.0719972,312
1685905706.0880797,311
1685905706.1002724,310
1685905706.1129436,310
1685905706.129456,310
1685905706.141984,312
1685905706.1569562,312
1685905706.170407,311
1685905706.182382,310
1685905706.1993794,310
1685905706.2112403,311
1685905706.223877,312
1685905706.2403083,312
1685905706.2523015,310
1685905706.264363,309
1685905706.2808115,310
1685905706.2931347,311
1685905706.3058147,312
1685905706.322471,312
1685905706.3339262,310
1685905706.349962,310
1685905706.362962,310
1685905706.3752115,312
1685905706.3917248,312
1685905706.4042218,311
1685905706.4162095,309
1685905706.4329946,309
1685905706.4448516,310
1685905706.4572294,311
1685905706.4733686,311
1685905706.4852238,310
1685905706.5012991,309
1685905706.5143414,309
1685905706.526887,310
1685905706.5431292,311
1685905706.5550332,311
1685905706.567702,310
1685905706.5840964,309
1685905706.5960407,309
1685905706.6085243,310
1685905706.6251059,310
1685905706.6372035,310
1685905706.6533155,308
1685905706.6659138,307
1685905706.6779032,308
1685905706.6947262,309
1685905706.7070167,310
1685905706.7190173,308
1685905706.7348533,307
1685905706.7478743,307
1685905706.7600513,308
1685905706.777027,309
1685905706.7883325,309
1685905706.8011954,308
1685905706.8168793,307
1685905706.829346,307
1685905706.8464088,308
1685905706.8585582,309
1685905706.870811,309
1685905706.887267,307
1685905706.8992817,307
1685905706.911298,308
1685905706.928311,309
1685905706.940217,310
1685905706.952239,309
1685905706.9692254,308
1685905706.9812243,307
1685905706.9972668,308
1685905707.0100386,310
1685905707.0220313,311
1685905707.0380924,310
1685905707.051091,309
1685905707.0630362,309
1685905707.0790906,310
1685905707.0911484,311
1685905707.1040292,311
1685905707.1201448,310
1685905707.132144,309
1685905707.1453335,309
1685905707.1612859,310
1685905707.1737962,311
1685905707.1898575,311
1685905707.2027104,310
1685905707.214616,309
1685905707.2311502,309
1685905707.2434442,310
1685905707.2554429,311
1685905707.2722058,310
1685905707.2842486,308
1685905707.2970355,307
1685905707.3131547,308
1685905707.3253794,309
1685905707.3408985,309
1685905707.3542047,308
1685905707.3662355,307
1685905707.3822205,307
1685905707.3951898,308
1685905707.4071257,310
1685905707.4241843,310
1685905707.4355233,309
1685905707.448165,307
1685905707.4645185,308
1685905707.4763763,309
1685905707.492359,310
1685905707.5054233,310
1685905707.517718,308
1685905707.5344205,307
1685905707.5463655,308
1685905707.5590966,309
1685905707.5753565,310
1685905707.5875044,309
1685905707.5996423,307
1685905707.616113,307
1685905707.6278274,308
1685905707.6409643,309
1685905707.6569076,309
1685905707.6688287,308
1685905707.6858993,307
1685905707.6981158,307
1685905707.7098317,308
1685905707.72685,309
1685905707.7390764,309
1685905707.7511554,308
1685905707.7678895,307
1685905707.779861,307
1685905707.7918446,309
1685905707.808237,310
1685905707.8209696,309
1685905707.8372452,308
1685905707.8499126,308
1685905707.8619094,309
1685905707.877913,310
1685905707.889913,310
1685905707.9029942,310
1685905707.9196784,308
1685905707.9309645,308
1685905707.9439268,309
1685905707.959927,310
1685905707.9722104,310
1685905707.9849505,309
1685905708.000878,308
1685905708.0128875,308
1685905708.0299675,309
1685905708.042101,310
1685905708.054638,310
1685905708.070877,309
1685905708.0830052,308
1685905708.0948741,309
1685905708.1119459,310
1685905708.124142,312
1685905708.135877,311
1685905708.1529431,310
1685905708.1649618,309
1685905708.1809404,310
1685905708.1938975,311
1685905708.205957,313
1685905708.2218869,312
1685905708.2348726,311
1685905708.2468781,311
1685905708.2631357,313
1685905708.275646,315
1685905708.2875645,316
1685905708.3046343,316
1685905708.316576,316
1685905708.332564,317
1685905708.34462,320
1685905708.3575714,322
1685905708.373636,322
1685905708.3859475,322
1685905708.3986397,323
1685905708.414572,324
1685905708.4265673,326
1685905708.4395726,328
1685905708.455391,328
1685905708.46833,327
1685905708.4804,327
1685905708.4966595,328
1685905708.509326,330
1685905708.5253937,330
1685905708.5376942,329
1685905708.5496101,326
1685905708.5664022,324
1685905708.578614,323
1685905708.5904267,321
1685905708.607411,318
1685905708.6196861,313
1685905708.632157,307
1685905708.6483407,303
1685905708.6603434,300
1685905708.6773999,298
1685905708.6896617,295
1685905708.701343,291
1685905708.7173715,287
1685905708.7303987,286
1685905708.742326,285
1685905708.7584145,284
1685905708.771392,283
1685905708.7833803,281
1685905708.7994132,280
1685905708.8123198,280
1685905708.8244078,282
1685905708.8403249,283
1685905708.8533907,283
1685905708.8693254,283
1685905708.8816144,283
1685905708.8933523,285
1685905708.9101267,288
1685905708.922482,290
1685905708.9352288,290
1685905708.9512897,290
1685905708.963484,291
1685905708.9762273,294
1685905708.992169,296
1685905709.0044804,297
1685905709.021242,297
1685905709.033176,297
1685905709.045482,298
1685905709.0622318,300
1685905709.0746486,302
1685905709.0866125,302
1685905709.1032379,302
1685905709.1153266,302
1685905709.1274981,303
1685905709.1442327,305
1685905709.1561737,307
1685905709.1722286,306
1685905709.1845317,305
1685905709.1972322,305
1685905709.213169,307
1685905709.2252982,307
1685905709.2382421,306
1685905709.2544696,304
1685905709.2665339,303
1685905709.2791824,301
1685905709.295563,302
1685905709.3072262,303
1685905709.3196564,303
1685905709.3360622,304
1685905709.348781,305
1685905709.3648376,311
1685905709.3777852,318
1685905709.3898084,327
1685905709.4058483,335
1685905709.418,342
1685905709.430144,352
1685905709.4469452,361
1685905709.4587119,372
1685905709.4716923,381
1685905709.4879391,387
1685905709.499694,391
1685905709.516072,395
1685905709.5286894,398
1685905709.5413454,400
1685905709.557348,399
1685905709.5696757,396
1685905709.5824118,391
1685905709.5988917,387
1685905709.6104057,384
1685905709.6231089,380
1685905709.6389983,375
1685905709.651967,368
1685905709.6639616,362
1685905709.6799178,356
1685905709.692927,351
1685905709.708915,344
1685905709.720912,337
1685905709.7339036,329
1685905709.7500777,322
1685905709.7622302,317
1685905709.7749708,313
1685905709.7913923,307
1685905709.8033721,300
1685905709.8156068,293
1685905709.8315084,287
1685905709.8445272,285
1685905709.8605165,283
1685905709.8725069,280
1685905709.8855107,276
1685905709.9015691,271
1685905709.9135811,267
1685905709.9265883,262
1685905709.9425316,258
1685905709.9545965,253
1685905709.9665682,247
1685905709.9835908,243
1685905709.9957788,241
1685905710.0115085,240
1685905710.0242226,239
1685905710.0369575,238
1685905710.05294,237
1685905710.0648801,238
1685905710.0779533,239
1685905710.093875,242
1685905710.1061995,245
1685905710.1191247,246
1685905710.135207,248
1685905710.147475,251
1685905710.1591835,255
1685905710.1761208,260
1685905710.1882718,263
1685905710.2045157,266
1685905710.216763,268
1685905710.2287514,272
1685905710.2457528,276
1685905710.2578769,281
1685905710.2701364,283
1685905710.2868314,285
1685905710.2987642,287
1685905710.3111465,289
1685905710.3278236,293
1685905710.3397534,295
1685905710.355816,297
1685905710.3688302,297
1685905710.3807552,298
1685905710.3968112,300
1685905710.4097712,303
1685905710.4218342,305
1685905710.4378135,305
1685905710.4501173,304
1685905710.4627538,304
1685905710.47877,305
1685905710.491768,307
1685905710.5039604,307
1685905710.5204127,305
1685905710.5324209,305
1685905710.5487046,305
1685905710.5606985,306
1685905710.5734105,307
1685905710.5893476,307
1685905710.601537,305
1685905710.614422,305
1685905710.6309874,305
1685905710.6423693,307
1685905710.655424,308
1685905710.671351,308
1685905710.6843498,307
1685905710.7004354,308
1685905710.7121167,310
1685905710.72508,312
1685905710.7410765,313
1685905710.7540612,312
1685905710.7660522,311
1685905710.7822769,310
1685905710.7943833,311
1685905710.8061292,311
1685905710.8235483,310
1685905710.8356128,307
1685905710.8475437,304
1685905710.8645494,302
1685905710.876606,302
1685905710.8925645,302
1685905710.9045455,301
1685905710.9175525,299
1685905710.9335778,299
1685905710.9458234,300
1685905710.9585428,302
1685905710.974543,304
1685905710.9868598,305
1685905710.9996138,306
1685905711.0155685,308
1685905711.027508,311
1685905711.0445092,313
1685905711.056706,315
1685905711.0688612,314
1685905711.0855763,313
1685905711.0976117,313
1685905711.1095376,313
1685905711.1265695,314
1685905711.1387746,313
1685905711.1508894,311
1685905711.167575,309
1685905711.1795843,308
1685905711.1955094,308
1685905711.207569,308
1685905711.220503,307
1685905711.2372272,305
1685905711.2492268,303
1685905711.2606885,303
1685905711.278253,303
1685905711.290254,303
1685905711.30318,301
1685905711.3184712,299
1685905711.3313067,298
1685905711.3433745,299
1685905711.3596113,299
1685905711.3722603,300
1685905711.3883467,299
1685905711.4006188,297
1685905711.4134376,297
1685905711.4294238,298
1685905711.4417021,300
1685905711.453358,300
1685905711.4704342,299
1685905711.482559,298
1685905711.4943595,298
1685905711.511361,299
1685905711.5232313,300
1685905711.5399008,299
1685905711.5519204,298
1685905711.564221,297
1685905711.5809772,297
1685905711.5939252,299
1685905711.604987,300
1685905711.6219282,299
1685905711.6338112,298
1685905711.6468062,298
1685905711.662752,299
1685905711.6748054,301
1685905711.6870835,301
1685905711.7036364,301
1685905711.7165592,300
1685905711.7322419,300
1685905711.7439206,301
1685905711.757098,303
1685905711.773944,303
1685905711.7861497,302
1685905711.7979808,301
1685905711.814304,302
1685905711.826208,303
1685905711.8392072,304
1685905711.8551168,304
1685905711.8676255,303
1685905711.8837419,303
1685905711.896413,304
1685905711.9082787,306
1685905711.9252744,307
1685905711.937331,307
1685905711.9492576,307
1685905711.96559,307
1685905711.9783192,308
1685905711.9902523,309
1685905712.0072486,310
1685905712.0193226,310
1685905712.0353105,309
1685905712.0472698,309
1685905712.0603166,310
1685905712.0762527,312
1685905712.0893319,312
1685905712.1013253,311
1685905712.1172547,310
1685905712.1293507,310
1685905712.142272,312
1685905712.15848,313
1685905712.170251,313
1685905712.182619,312
1685905712.1993313,311
1685905712.2112541,312
1685905712.2278569,314
1685905712.2401822,315
1685905712.2529216,314
1685905712.2689135,313
1685905712.2809331,313
1685905712.2938724,314
1685905712.3098612,315
1685905712.32218,316
1685905712.3339167,315
1685905712.3508573,314
1685905712.3629172,314
1685905712.3791883,315
1685905712.3919172,316
1685905712.4042609,316
1685905712.4201913,315
1685905712.4323118,314
1685905712.4448571,315
1685905712.4618726,316
1685905712.4738877,317
1685905712.4860952,316
1685905712.5019283,315
1685905712.5148616,315
1685905712.5264556,315
1685905712.5433908,317
1685905712.5554612,318
1685905712.5713909,317
1685905712.5843916,316
1685905712.5965207,315
1685905712.6134603,316
1685905712.6254034,318
1685905712.6376746,318
1685905712.6534662,317
1685905712.6664686,316
1685905712.6787453,316
1685905712.694715,318
1685905712.707454,319
1685905712.7234802,319
1685905712.735986,318
1685905712.7486978,318
1685905712.7643392,318
1685905712.776624,320
1685905712.7894237,320
1685905712.8053591,320
1685905712.8177085,319
1685905712.830421,319
1685905712.8463533,320
1685905712.858414,321
1685905712.8746881,322
1685905712.8874156,321
1685905712.8994293,319
1685905712.916369,319
1685905712.9287796,320
1685905712.9401875,321
1685905712.9566014,321
1685905712.9696903,320
1685905712.981645,318
1685905712.9981067,318
1685905713.0105646,320
1685905713.0223408,320
1685905713.0392022,320
1685905713.051314,318
1685905713.0673735,317
1685905713.0793717,317
1685905713.0923092,318
1685905713.1083012,318
1685905713.1213362,317
1685905713.1328979,315
1685905713.1489432,314
1685905713.1621885,314
1685905713.1737368,315
1685905713.1909065,314
1685905713.2032282,313
1685905713.2193234,311
1685905713.2315378,311
1685905713.2442229,311
1685905713.260343,312
1685905713.2728558,312
1685905713.284485,310
1685905713.3012471,309
1685905713.3138113,309
1685905713.32531,310
1685905713.3418167,311
1685905713.3543775,310
1685905713.36704,309
1685905713.3830414,308
1685905713.3961058,309
1685905713.4131114,310
1685905713.4240587,311
1685905713.4361029,310
1685905713.4521015,309
1685905713.465096,308
1685905713.477089,309
1685905713.4932916,310
1685905713.5050948,311
1685905713.518077,310
1685905713.534032,309
1685905713.5460956,309
1685905713.5631056,310
1685905713.5750492,311
1685905713.588057,312
1685905713.604096,311
1685905713.6160982,310
1685905713.6290462,310
1685905713.6450903,311
1685905713.657721,312
1685905713.6693168,312
1685905713.6863792,311
1685905713.6983726,310
1685905713.7143762,310
1685905713.7263157,311
1685905713.7393403,312
1685905713.7553704,311
1685905713.7676666,310
1685905713.7803862,309
1685905713.7963674,310
1685905713.8083687,312
1685905713.821371,312
1685905713.8373613,311
1685905713.849504,310
1685905713.861547,309
1685905713.8785646,310
1685905713.8909655,312
1685905713.9071417,312
1685905713.9192064,311
1685905713.932133,309
1685905713.9483554,309
1685905713.9609332,311
1685905713.972328,312
1685905713.989284,311
1685905714.0012243,310
1685905714.013851,309
1685905714.0303686,309
1685905714.0428207,311
1685905714.0582905,312
1685905714.071254,312
1685905714.0829668,311
1685905714.0997436,310
1685905714.1121442,312
1685905714.1240337,313
1685905714.1404152,313
1685905714.1531734,313
1685905714.165303,312
1685905714.1812937,312
1685905714.1940978,313
1685905714.2055635,315
1685905714.2228224,315
1685905714.2348204,314
1685905714.2520797,313
1685905714.263182,313
1685905714.2760766,315
1685905714.2926702,317
1685905714.3049777,317
1685905714.316935,317
1685905714.3326886,318
1685905714.3462372,319
1685905714.3580794,321
1685905714.374301,321
1685905714.3866143,320
1685905714.4022872,317
1685905714.4152718,316
1685905714.4276114,315
1685905714.444255,316
1685905714.4558134,315
1685905714.4684536,314
1685905714.4849124,312
1685905714.497271,313
1685905714.5089555,314
1685905714.526063,315
1685905714.5381258,316
1685905714.554223,314
1685905714.5663512,313
1685905714.5790484,311
1685905714.5955787,311
1685905714.608022,310
1685905714.6201138,307
1685905714.6367493,304
1685905714.6489804,303
1685905714.660396,303
1685905714.6774101,305
1685905714.6893852,308
1685905714.7014933,310
1685905714.7183309,312
1685905714.7303312,314
1685905714.7471292,317
1685905714.759291,320
1685905714.771904,322
1685905714.787907,323
1685905714.7999487,323
1685905714.812769,325
1685905714.82853,328
1685905714.8414693,330
1685905714.8534687,330
1685905714.8694658,329
1685905714.881536,328
1685905714.8984673,328
1685905714.912465,328
1685905714.9224663,329
1685905714.9387968,327
1685905714.9515254,325
1685905714.9639466,322
1685905714.9801867,322
1685905714.9923363,322
1685905715.0043383,321
1685905715.021011,319
1685905715.0334904,318
1685905715.0461903,317
1685905715.062166,319
1685905715.0746908,321
1685905715.0904784,322
1685905715.1033838,321
1685905715.1152709,321
1685905715.132195,321
1685905715.1443703,323
1685905715.1562774,326
1685905715.1724544,326
1685905715.1849625,324
1685905715.1978798,323
1685905715.213821,322
1685905715.2261288,322
1685905715.2420933,320
1685905715.2551863,317
1685905715.266857,313
1685905715.2839081,309
1685905715.29584,307
1685905715.3077412,305
1685905715.324324,302
1685905715.3367643,298
1685905715.3486326,294
1685905715.3658037,289
1685905715.3774915,286
1685905715.3941157,282
1685905715.406336,278
1685905715.419325,273
1685905715.4343917,269
1685905715.4474547,267
1685905715.459502,266
1685905715.4760916,266
1685905715.4885066,265
1685905715.5005314,264
1685905715.5171602,264
1685905715.5288737,265
1685905715.5418174,269
1685905715.55745,272
1685905715.570527,273
1685905715.5868,273
1685905715.5987387,274
1685905715.6113687,277
1685905715.627694,280
1685905715.639737,283
1685905715.6522844,284
1685905715.6689034,284
1685905715.6801996,285
1685905715.6933506,288
1685905715.7095535,291
1685905715.7218652,294
1685905715.7374833,295
1685905715.7503245,296
1685905715.7623763,298
1685905715.7792778,301
1685905715.7915819,303
1685905715.8039262,304
1685905715.8200574,304
1685905715.8321054,304
1685905715.844978,304
1685905715.8606987,305
1685905715.8733902,306
1685905715.8855693,305
1685905715.9021723,303
1685905715.913896,303
1685905715.9308786,303
1685905715.943162,304
1685905715.955071,305
1685905715.9717343,304
1685905715.9837995,303
1685905715.996366,303
1685905716.0129528,304
1685905716.0243285,305
1685905716.0374315,305
1685905716.0538092,304
1685905716.0661614,303
1685905716.0823622,303
1685905716.0951777,304
1685905716.1061592,305
1685905716.123563,304
1685905716.1358242,303
1685905716.1471908,302
1685905716.16455,303
1685905716.1762443,304
1685905716.1882637,305
1685905716.2049375,304
1685905716.217227,302
1685905716.2340565,301
1685905716.2464988,302
1685905716.2585266,303
1685905716.2749038,303
1685905716.28728,301
1685905716.2993956,299
1685905716.3158786,298
1685905716.3272054,298
1685905716.3401868,299
1685905716.3568482,298
1685905716.3691907,296
1685905716.3809428,295
1685905716.397999,294
1685905716.409598,295
1685905716.4255397,296
1685905716.4385388,295
1685905716.4505572,293
1685905716.4675364,292
1685905716.4796014,293
1685905716.491534,294
1685905716.5081563,294
1685905716.5206962,293
1685905716.53214,292
1685905716.5492032,292
1685905716.5612028,293
1685905716.577136,294
1685905716.5901353,295
1685905716.6023974,294
1685905716.6190417,293
1685905716.631024,293
1685905716.6435041,294
1685905716.6601148,296
1685905716.6720407,296
1685905716.6848845,295
1685905716.7007954,294
1685905716.7124522,295
1685905716.7254553,296
1685905716.7415133,297
1685905716.753945,297
1685905716.7705216,295
1685905716.7825766,295
1685905716.7949212,295
1685905716.8109822,297
1685905716.8235826,298
1685905716.8355176,297
1685905716.85258,296
1685905716.8645763,296
1685905716.8770742,297
1685905716.8927834,299
1685905716.9054503,300
1685905716.9213643,299
1685905716.9345508,298
1685905716.9466157,299
1685905716.9629283,300
1685905716.9751542,302
1685905716.9877634,302
1685905717.0038733,301
1685905717.016321,301
1685905717.0282938,302
1685905717.044855,304
1685905717.0571961,306
1685905717.072345,306
1685905717.085243,306
1685905717.0977602,306
1685905717.114349,307
1685905717.1267633,309
1685905717.1390796,311
1685905717.1552892,310
1685905717.1675932,310
1685905717.180207,310
1685905717.1962836,312
1685905717.2088947,314
1685905717.2220693,314
1685905717.2373707,314
1685905717.249703,313
1685905717.2657795,313
1685905717.2783866,315
1685905717.2908087,316
1685905717.3068314,317
1685905717.319186,316
1685905717.330879,316
1685905717.3480315,316
1685905717.35964,318
1685905717.372574,319
1685905717.3888447,319
1685905717.4013557,318
1685905717.4172485,318
1685905717.429248,319
1685905717.4422474,320
1685905717.459306,321
1685905717.4706125,321
1685905717.4831483,320
1685905717.4991405,320
1685905717.5118272,321
1685905717.5233235,323
1685905717.5403676,323
1685905717.5523443,322
1685905717.5651584,321
1685905717.581347,322
1685905717.5940554,323
1685905717.6099374,324
1685905717.6221778,324
1685905717.6349301,323
1685905717.6509824,322
1685905717.6633563,322
1685905717.6750114,323
1685905717.6921628,324
1685905717.7042713,323
1685905717.7162464,321
1685905717.7328317,320
1685905717.7452958,320
1685905717.7616036,321
1685905717.7738745,321
1685905717.7861934,320
1685905717.8021352,318
1685905717.8150342,317
1685905717.827872,318
1685905717.8436904,319
1685905717.8551257,319
1685905717.8681796,318
1685905717.8842757,317
1685905717.89627,317
1685905717.9083674,318
1685905717.9250138,319
1685905717.938395,319
1685905717.9539423,318
1685905717.9666922,317
1685905717.978818,317
1685905717.995178,318
1685905718.0073195,319
1685905718.0193114,318
1685905718.0353472,316
1685905718.0480037,315
1685905718.0602257,316
1685905718.077243,317
1685905718.0892024,318
1685905718.1050675,317
1685905718.1181216,316
1685905718.1301813,315
1685905718.1465065,316
1685905718.158923,318
1685905718.1712642,318
1685905718.187846,317
1685905718.2000773,316
1685905718.2123346,316
1685905718.2280903,317
1685905718.2406576,319
1685905718.2561476,318
1685905718.2691376,317
1685905718.28187,316
1685905718.2977967,317
1685905718.3104699,318
1685905718.322753,319
1685905718.3385367,318
1685905718.3508341,317
1685905718.3630095,316
1685905718.3801472,317
1685905718.3922834,318
1685905718.4041476,318
1685905718.4213681,317
1685905718.4333522,315
1685905718.4497848,314
1685905718.4615972,315
1685905718.4739275,316
1685905718.4905984,316
1685905718.5032244,315
1685905718.5152783,313
1685905718.531947,313
1685905718.5441718,314
1685905718.556164,314
1685905718.572595,314
1685905718.5847757,312
1685905718.6012766,311
1685905718.613259,311
1685905718.626261,313
1685905718.6423104,313
1685905718.6542573,312
1685905718.6667972,311
1685905718.6832638,310
1685905718.695264,310
1685905718.7073224,311
1685905718.7242603,311
1685905718.7362719,310
1685905718.7523105,308
1685905718.7643185,308
1685905718.7772682,308
1685905718.7933242,309
1685905718.8053174,309
1685905718.818264,307
1685905718.8342605,306
1685905718.846402,306
1685905718.8592594,307
1685905718.8753011,308
1685905718.888262,308
1685905718.900251,306
1685905718.9167376,305
1685905718.9289486,306
1685905718.9452257,307
1685905718.9573529,308
1685905718.9692757,307
1685905718.9863806,306
1685905718.998887,306
1685905719.010381,307
1685905719.027251,309
1685905719.039697,309
1685905719.0520098,308
1685905719.0680919,307
1685905719.0804508,308
1685905719.096179,309
1685905719.10912,311
1685905719.1211398,311
1685905719.1372426,310
1685905719.150205,309
1685905719.162291,309
1685905719.1784778,310
1685905719.1912346,311
1685905719.2031872,311
1685905719.2194886,309
1685905719.2311966,308
1685905719.2442043,308
1685905719.2601962,310
1685905719.2732377,310
1685905719.2891793,309
1685905719.3014138,308
1685905719.3136668,307
1685905719.330458,308
1685905719.3424938,309
1685905719.3551297,310
1685905719.3716357,308
1685905719.3836305,307
1685905719.395869,307
1685905719.4128852,308
1685905719.4248867,309
1685905719.4408965,309
1685905719.4530199,308
1685905719.464869,306
1685905719.4818895,307
1685905719.4938643,308
1685905719.5058637,309
1685905719.5228639,308
1685905719.5350463,307
1685905719.547178,306
1685905719.5639303,307
1685905719.5759068,308
1685905719.591834,309
1685905719.604235,308
1685905719.6172466,307
1685905719.633259,307
1685905719.6455433,308
1685905719.6576009,310
1685905719.6735668,309
1685905719.6865413,308
1685905719.6985238,307
1685905719.7155871,307
1685905719.727551,308
1685905719.7397196,309
1685905719.755864,309
1685905719.7685413,308
1685905719.7848516,307
1685905719.796854,308
1685905719.809519,309
1685905719.8259327,310
1685905719.8381321,309
1685905719.8505533,307
1685905719.8669136,306
1685905719.879089,307
1685905719.8919356,307
1685905719.907977,307
1685905719.9199347,305
1685905719.9360964,302
1685905719.9489863,301
1685905719.9603932,301
1685905719.9778507,301
1685905719.9898932,301
1685905720.001698,300
1685905720.01807,299
1685905720.0307488,300
1685905720.0427423,303
1685905720.0590725,305
1685905720.0717337,306
1685905720.0839846,307
1685905720.100752,308
1685905720.1128032,311
1685905720.129139,315
1685905720.1407294,319
1685905720.1538012,321
1685905720.1697545,323
1685905720.1817317,326
1685905720.1947918,332
1685905720.210905,338
1685905720.2227294,343
1685905720.2350476,347
1685905720.251745,351
1685905720.2641728,356
1685905720.279797,363
1685905720.2921784,367
1685905720.3049564,367
1685905720.32194,362
1685905720.3337038,355
1685905720.3456955,347
1685905720.3627584,339
1685905720.3747385,331
1685905720.3867548,321
1685905720.402806,312
1685905720.4157405,304
1685905720.431753,299
1685905720.4447577,296
1685905720.456756,292
1685905720.4727597,289
1685905720.4847376,285
1685905720.4977582,283
1685905720.513749,283
1685905720.5267603,284
1685905720.5387392,284
1685905720.5547388,283
1685905720.5668097,282
1685905720.5790775,283
1685905720.5960336,284
1685905720.607738,285
1685905720.624806,286
1685905720.6367571,286
1685905720.649058,286
1685905720.6650686,287
1685905720.677786,289
1685905720.6897607,291
1685905720.7061303,292
1685905720.7191312,292
1685905720.7310877,293
1685905720.747114,294
1685905720.7600691,296
1685905720.776078,297
1685905720.7891843,297
1685905720.8010614,296
1685905720.8170676,296
1685905720.829061,297
1685905720.8418164,299
1685905720.8580644,300
1685905720.8707733,299
1685905720.882755,299
1685905720.8988829,300
1685905720.9119065,303
1685905720.9239058,306
1685905720.9399061,307
1685905720.952148,307
1685905720.9689038,309
1685905720.9808953,313
1685905720.992949,317
1685905721.009213,322
1685905721.0218883,327
1685905721.0340805,332
1685905721.0508893,339
1685905721.062881,348
1685905721.0748792,359
1685905721.0908787,369
1685905721.1039493,376
1685905721.1200302,384
1685905721.1323059,390
1685905721.1448238,396
1685905721.1613338,400
1685905721.173266,402
1685905721.1852696,400
1685905721.202272,397
1685905721.2142875,394
1685905721.2262228,391
