timestamps,emg_signal
1685766247.9734933,309
1685766247.9898515,309
1685766248.0022123,311
1685766248.0142634,312
1685766248.0303407,313
1685766248.043162,311
1685766248.0585933,309
1685766248.071591,309
1685766248.0835922,311
1685766248.100607,312
1685766248.112589,312
1685766248.1247628,310
1685766248.140916,308
1685766248.1539183,309
1685766248.1662562,311
1685766248.1823382,312
1685766248.1942484,311
1685766248.2072499,309
1685766248.2229033,308
1685766248.2350633,309
1685766248.251268,311
1685766248.2652235,312
1685766248.27669,310
1685766248.293181,308
1685766248.3052135,308
1685766248.3175483,309
1685766248.3341498,311
1685766248.345586,311
1685766248.3581228,310
1685766248.3753393,308
1685766248.387268,308
1685766248.4033446,310
1685766248.4160972,311
1685766248.428247,311
1685766248.444106,310
1685766248.4568002,308
1685766248.4691765,309
1685766248.4850307,311
1685766248.4978848,312
1685766248.5101326,312
1685766248.5258572,310
1685766248.5396125,309
1685766248.5541205,310
1685766248.5674973,312
1685766248.579372,313
1685766248.596024,311
1685766248.6083844,310
1685766248.620799,309
1685766248.6373272,311
1685766248.6487825,312
1685766248.6617882,312
1685766248.67768,310
1685766248.6904023,309
1685766248.7029014,309
1685766248.718777,311
1685766248.7312598,312
1685766248.7478216,312
1685766248.7603116,310
1685766248.7722454,308
1685766248.7886612,309
1685766248.8006995,311
1685766248.8125904,312
1685766248.8292742,311
1685766248.8413444,309
1685766248.8541994,308
1685766248.8705387,309
1685766248.882545,312
1685766248.898872,312
1685766248.9108896,311
1685766248.9237075,309
1685766248.9399765,308
1685766248.9519868,311
1685766248.9643636,312
1685766248.980925,312
1685766248.9930027,311
1685766249.0049539,309
1685766249.0219543,309
1685766249.034012,311
1685766249.0459566,312
1685766249.0629544,312
1685766249.0750124,310
1685766249.0909677,308
1685766249.1039555,309
1685766249.116182,312
1685766249.1319532,313
1685766249.14399,312
1685766249.1569488,310
1685766249.173235,309
1685766249.1852694,310
1685766249.1982965,312
1685766249.2143972,312
1685766249.2261496,311
1685766249.2424557,309
1685766249.2557046,309
1685766249.2676837,311
1685766249.2836828,313
1685766249.2964618,313
1685766249.3086011,312
1685766249.325148,310
1685766249.3372538,310
1685766249.350025,312
1685766249.3661442,314
1685766249.3784046,313
1685766249.3945267,312
1685766249.4067397,310
1685766249.4187214,311
1685766249.4355955,313
1685766249.4484472,315
1685766249.4604638,314
1685766249.4764373,312
1685766249.4894571,312
1685766249.50144,313
1685766249.5178032,315
1685766249.5299666,316
1685766249.5424533,315
1685766249.5584402,313
1685766249.5707624,313
1685766249.5865126,315
1685766249.5994532,317
1685766249.6114447,317
1685766249.62849,316
1685766249.6404417,314
1685766249.6524916,314
1685766249.6684487,316
1685766249.6814575,318
1685766249.6935833,317
1685766249.7103987,315
1685766249.7219865,313
1685766249.7381892,314
1685766249.7512164,316
1685766249.7633848,317
1685766249.779097,316
1685766249.7921336,314
1685766249.8040838,313
1685766249.820795,314
1685766249.8327324,316
1685766249.8447354,316
1685766249.8617313,314
1685766249.873732,312
1685766249.8897305,311
1685766249.9027293,313
1685766249.9147325,314
1685766249.931488,314
1685766249.9436183,312
1685766249.9559016,310
1685766249.9720354,310
1685766249.9846604,312
1685766249.9964478,312
1685766250.0126376,311
1685766250.024641,309
1685766250.0377378,307
1685766250.053565,308
1685766250.065565,310
1685766250.0819697,310
1685766250.0945227,309
1685766250.1070807,306
1685766250.123494,305
1685766250.13536,306
1685766250.1483967,307
1685766250.1645947,308
1685766250.1764767,307
1685766250.188477,306
1685766250.2054193,306
1685766250.2173808,309
1685766250.2335203,311
1685766250.2464674,311
1685766250.258536,310
1685766250.2744627,309
1685766250.2866862,310
1685766250.299685,313
1685766250.3164034,315
1685766250.3283575,314
1685766250.3412485,313
1685766250.3568518,311
1685766250.3698523,313
1685766250.381865,315
1685766250.3982031,316
1685766250.4102995,314
1685766250.4266548,312
1685766250.438977,312
1685766250.4515738,313
1685766250.4679425,314
1685766250.480286,314
1685766250.4920223,313
1685766250.5082955,310
1685766250.5214145,310
1685766250.533399,311
1685766250.550123,312
1685766250.5620787,312
1685766250.5781252,311
1685766250.5911138,310
1685766250.602667,310
1685766250.6192136,313
1685766250.6312265,314
1685766250.6438363,314
1685766250.660361,313
1685766250.6724334,313
1685766250.6848238,315
1685766250.701199,317
1685766250.7129705,318
1685766250.7290764,317
1685766250.7419617,315
1685766250.7547972,315
1685766250.7707975,316
1685766250.7838018,317
1685766250.7953165,317
1685766250.8118527,316
1685766250.8244312,314
1685766250.8360238,313
1685766250.8524733,315
1685766250.8644822,316
1685766250.8774838,316
1685766250.8934762,315
1685766250.9054728,313
1685766250.9224777,314
1685766250.934472,316
1685766250.946472,318
1685766250.9634721,317
1685766250.9755173,315
1685766250.9880507,314
1685766251.004484,315
1685766251.0164788,318
1685766251.0284858,319
1685766251.0455744,318
1685766251.0574894,317
1685766251.0730658,317
1685766251.0860507,319
1685766251.0980482,321
1685766251.1151562,322
1685766251.1267605,322
1685766251.1397772,321
1685766251.1557376,322
1685766251.1677077,324
1685766251.1807132,326
1685766251.1967092,326
1685766251.2091255,325
1685766251.2211266,324
1685766251.2379303,325
1685766251.2499142,327
1685766251.2663383,328
1685766251.2788935,327
1685766251.2907596,325
1685766251.3077526,324
1685766251.319161,325
1685766251.3317225,327
1685766251.3484323,326
1685766251.36053,324
1685766251.3733516,322
1685766251.3895383,321
1685766251.402215,322
1685766251.4177155,323
1685766251.4296486,323
1685766251.442868,321
1685766251.4592466,319
1685766251.471467,319
1685766251.4834263,320
1685766251.50017,321
1685766251.5120664,320
1685766251.5240674,318
1685766251.540502,317
1685766251.5533636,317
1685766251.5693352,319
1685766251.5819194,319
1685766251.594355,318
1685766251.6105492,315
1685766251.6227412,314
1685766251.635519,314
1685766251.6518512,316
1685766251.6639924,316
1685766251.6755204,314
1685766251.6925325,312
1685766251.7045753,311
1685766251.7169514,312
1685766251.733486,314
1685766251.7452743,314
1685766251.762284,312
1685766251.7746334,310
1685766251.7866788,310
1685766251.8032465,311
1685766251.8147397,313
1685766251.8276367,312
1685766251.8443432,310
1685766251.856249,308
1685766251.868424,308
1685766251.8853092,310
1685766251.8972626,310
1685766251.913248,309
1685766251.9253244,307
1685766251.9382236,306
1685766251.9545894,306
1685766251.9670868,308
1685766251.978841,308
1685766251.9955032,307
1685766252.0074477,305
1685766252.0202048,304
1685766252.0359898,306
1685766252.0489724,308
1685766252.061526,308
1685766252.0773697,307
1685766252.0896904,305
1685766252.1057,305
1685766252.1186464,307
1685766252.130732,308
1685766252.1471148,308
1685766252.1595073,306
1685766252.171629,304
1685766252.1882877,305
1685766252.2002842,307
1685766252.2134886,308
1685766252.2294562,307
1685766252.2418895,305
1685766252.2573872,303
1685766252.269418,305
1685766252.2819421,307
1685766252.2989724,307
1685766252.311465,306
1685766252.3234596,303
1685766252.339808,303
1685766252.3514578,304
1685766252.3642244,306
1685766252.3806567,306
1685766252.3930628,305
1685766252.408872,303
1685766252.4219186,303
1685766252.434061,305
1685766252.4504604,307
1685766252.4624796,306
1685766252.4744747,304
1685766252.4909174,302
1685766252.5029194,303
1685766252.515962,305
1685766252.532129,305
1685766252.544266,304
1685766252.5569074,302
1685766252.5729244,301
1685766252.5849192,303
1685766252.6019626,304
1685766252.6140652,304
1685766252.626526,303
1685766252.6431272,301
1685766252.6553047,301
1685766252.6673708,303
1685766252.6838348,305
1685766252.6964235,305
1685766252.7084284,303
1685766252.7244213,302
1685766252.737311,302
1685766252.752941,304
1685766252.7661662,306
1685766252.7781603,305
1685766252.794373,303
1685766252.8064158,302
1685766252.8189824,303
1685766252.8351755,305
1685766252.8469267,306
1685766252.8593569,304
1685766252.8759332,302
1685766252.8882508,301
1685766252.9011934,302
1685766252.917294,304
1685766252.9292908,303
1685766252.9454265,302
1685766252.9579597,300
1685766252.9704664,299
1685766252.9863114,301
1685766252.998428,303
1685766253.0113838,303
1685766253.0280735,301
1685766253.0403998,298
1685766253.052451,299
1685766253.06909,301
1685766253.0806894,302
1685766253.0967314,301
1685766253.1096587,299
1685766253.1218045,298
1685766253.138085,299
1685766253.150685,302
1685766253.1623375,302
1685766253.1793337,301
1685766253.192031,298
1685766253.2039628,297
1685766253.2202444,298
1685766253.2323382,300
1685766253.2488134,300
1685766253.2612612,298
1685766253.2732425,296
1685766253.289545,295
1685766253.302253,297
1685766253.3142476,299
1685766253.330238,298
1685766253.3434227,297
1685766253.355244,295
1685766253.3712554,296
1685766253.3842397,299
1685766253.396238,301
1685766253.4122496,301
1685766253.4250383,300
1685766253.4413948,299
1685766253.4533923,301
1685766253.4663978,303
1685766253.482397,304
1685766253.4946523,304
1685766253.506811,302
1685766253.5233896,303
1685766253.5354073,305
1685766253.5473876,308
1685766253.5644875,309
1685766253.576724,308
1685766253.5928023,307
1685766253.6053874,308
1685766253.617392,311
1685766253.6335156,313
1685766253.6455307,314
1685766253.658506,314
1685766253.6745093,313
1685766253.6875112,315
1685766253.6995108,318
1685766253.715516,320
1685766253.7275212,320
1685766253.7445066,318
1685766253.756517,318
1685766253.7687988,320
1685766253.7855086,323
1685766253.7975104,324
1685766253.809511,323
1685766253.8265197,322
1685766253.8385065,322
1685766253.8515105,324
1685766253.8675086,326
1685766253.8795183,326
1685766253.891509,324
1685766253.908513,323
1685766253.9207911,324
1685766253.9366312,324
1685766253.9485729,326
1685766253.9615247,325
1685766253.977911,323
1685766253.9895597,322
1685766254.002509,324
1685766254.018511,327
1685766254.0305068,329
1685766254.0436368,330
1685766254.0596385,330
1685766254.0716317,331
1685766254.0876803,335
1685766254.1006804,339
1685766254.1126826,341
1685766254.129639,340
1685766254.1411605,335
1685766254.1541033,330
1685766254.1701055,327
1685766254.1821322,325
1685766254.1951623,321
1685766254.211113,315
1685766254.2231133,309
1685766254.2360709,306
1685766254.252804,306
1685766254.264863,305
1685766254.280811,303
1685766254.2928693,301
1685766254.3058038,299
1685766254.3218184,299
1685766254.3341746,300
1685766254.3463066,301
1685766254.3631098,300
1685766254.3751671,298
1685766254.3871846,297
1685766254.4041665,298
1685766254.4161131,301
1685766254.4322531,302
1685766254.4442196,301
1685766254.4562488,299
1685766254.4732542,299
1685766254.4853835,302
1685766254.4974093,304
1685766254.5137613,305
1685766254.5267406,305
1685766254.538895,303
1685766254.5549223,305
1685766254.5670505,308
1685766254.5839221,310
1685766254.5959187,312
1685766254.6079152,312
1685766254.6248827,312
1685766254.6370273,314
1685766254.6489158,318
1685766254.6658945,320
1685766254.6778834,320
1685766254.6905375,317
1685766254.7068841,315
1685766254.7190342,315
1685766254.7308927,316
1685766254.747894,315
1685766254.7601738,313
1685766254.7759383,309
1685766254.7889304,308
1685766254.8009403,309
1685766254.8169396,310
1685766254.829912,310
1685766254.841954,308
1685766254.8578901,305
1685766254.870895,304
1685766254.8828835,305
1685766254.8989282,305
1685766254.9118953,303
1685766254.9278848,300
1685766254.9399533,297
1685766254.9519436,297
1685766254.96894,297
1685766254.9809396,298
1685766254.993352,297
1685766255.0098839,295
1685766255.0218816,295
1685766255.0340612,298
1685766255.0511012,301
1685766255.0631046,302
1685766255.075163,302
1685766255.0911498,300
1685766255.1040971,300
1685766255.120106,301
1685766255.1331694,303
1685766255.1453083,303
1685766255.1611588,303
1685766255.1742935,302
1685766255.1860964,302
1685766255.2021048,305
1685766255.2151031,307
1685766255.2274365,308
1685766255.2431035,307
1685766255.256107,305
1685766255.2722614,306
1685766255.2841554,308
1685766255.296118,310
1685766255.3131812,311
1685766255.3251686,311
1685766255.337167,311
1685766255.3541214,314
1685766255.366146,316
1685766255.378641,316
1685766255.395186,315
1685766255.4071367,315
1685766255.4230957,315
1685766255.435598,316
1685766255.4477475,317
1685766255.4647486,315
1685766255.4767556,310
1685766255.4887898,305
1685766255.505762,303
1685766255.5177536,302
1685766255.5297573,300
1685766255.5462925,297
1685766255.5587084,295
1685766255.5707018,292
1685766255.5867069,292
1685766255.5997074,293
1685766255.6157064,294
1685766255.6283255,293
1685766255.6403248,292
1685766255.6572282,291
1685766255.6692243,293
1685766255.6812274,295
1685766255.6982343,295
1685766255.7102346,294
1685766255.7222254,292
1685766255.7392333,292
1685766255.751227,294
1685766255.7675014,296
1685766255.7800305,297
1685766255.7924826,295
1685766255.808481,294
1685766255.8205411,296
1685766255.83348,298
1685766255.849576,300
1685766255.8619041,300
1685766255.8735728,299
1685766255.890574,299
1685766255.902589,301
1685766255.9185698,303
1685766255.9317653,305
1685766255.9437995,304
1685766255.9603865,303
1685766255.9723756,302
1685766255.984386,304
1685766256.001388,306
1685766256.0136664,307
1685766256.0253716,305
1685766256.0423996,303
1685766256.054387,303
1685766256.06638,305
1685766256.0823712,306
1685766256.095685,306
1685766256.11137,304
1685766256.1243713,302
1685766256.1363714,303
1685766256.152993,305
1685766256.165365,307
1685766256.1773708,307
1685766256.1933699,305
1685766256.2053661,304
1685766256.2183657,305
1685766256.2340422,308
1685766256.2467177,309
1685766256.2627497,309
1685766256.2757187,307
1685766256.2877693,306
1685766256.3037717,308
1685766256.3167605,310
1685766256.328771,311
1685766256.344876,309
1685766256.3569221,307
1685766256.369718,307
1685766256.3864322,309
1685766256.3977673,311
1685766256.4107287,310
1685766256.4267747,309
1685766256.4387567,307
1685766256.4556515,308
1685766256.467457,310
1685766256.480374,311
1685766256.4963603,310
1685766256.5083785,309
1685766256.5213556,307
1685766256.5373702,308
1685766256.5500464,310
1685766256.562086,311
1685766256.5784929,310
1685766256.5910907,307
1685766256.6071188,306
1685766256.6195283,308
1685766256.631702,310
1685766256.6481934,310
1685766256.6607108,309
1685766256.672745,307
1685766256.689071,307
1685766256.7017367,309
1685766256.7138553,311
1685766256.7300124,310
1685766256.7419848,309
1685766256.7586174,307
1685766256.7708063,308
1685766256.7828598,310
1685766256.7995782,311
1685766256.8122308,310
1685766256.8242748,307
1685766256.8406441,306
1685766256.8530679,307
1685766256.86501,308
1685766256.8813043,309
1685766256.8942273,307
1685766256.906285,305
1685766256.9231877,305
1685766256.9347515,306
1685766256.9515188,308
1685766256.9635248,309
1685766256.97556,308
1685766256.9919,305
1685766257.0039515,306
1685766257.0168881,307
1685766257.0329998,308
1685766257.0454895,308
1685766257.0577466,306
1685766257.0744746,304
1685766257.0864637,305
1685766257.1028497,308
1685766257.1149242,308
1685766257.1273816,308
1685766257.1438875,307
1685766257.1563184,307
1685766257.1686232,309
1685766257.185492,311
1685766257.1971622,310
1685766257.209162,309
1685766257.2255874,307
1685766257.2376332,307
1685766257.2501748,309
1685766257.2664702,312
1685766257.2802646,312
1685766257.295239,311
1685766257.3080332,310
1685766257.3203945,310
1685766257.336165,312
1685766257.3487945,313
1685766257.3610506,314
1685766257.3774307,312
1685766257.3892772,311
1685766257.402298,311
1685766257.4182854,313
1685766257.430285,313
1685766257.447061,313
1685766257.4595623,311
1685766257.471621,309
1685766257.487506,310
1685766257.500559,312
1685766257.5121403,313
1685766257.5292625,312
1685766257.542138,309
1685766257.5532608,309
1685766257.5706952,310
1685766257.5823987,313
1685766257.5985475,313
1685766257.610546,313
1685766257.623466,311
1685766257.6405284,311
1685766257.6523876,313
1685766257.6644413,314
1685766257.6807127,314
1685766257.692895,313
1685766257.7045715,311
1685766257.7214842,311
1685766257.7339828,314
1685766257.746691,315
1685766257.762135,314
1685766257.7745492,312
1685766257.7906036,311
1685766257.8031056,313
1685766257.815956,315
1685766257.832267,315
1685766257.8444517,314
1685766257.8569553,311
1685766257.8729253,311
1685766257.8851078,313
1685766257.8980696,315
1685766257.9137523,315
1685766257.92577,314
1685766257.9430814,312
1685766257.955322,312
1685766257.9673808,314
1685766257.983636,315
1685766257.9954247,313
1685766258.008373,312
1685766258.0244284,310
1685766258.036434,311
1685766258.0490732,313
1685766258.065042,314
1685766258.078023,313
1685766258.0900214,311
1685766258.1060398,310
1685766258.118313,311
1685766258.1358643,314
1685766258.1473045,315
1685766258.1596932,313
1685766258.1757646,311
1685766258.1883867,311
1685766258.200917,312
1685766258.2169642,314
1685766258.228899,314
1685766258.2418988,313
1685766258.2579796,310
1685766258.2705212,311
1685766258.286641,313
1685766258.2994418,315
1685766258.311429,315
1685766258.3282669,312
1685766258.340197,310
1685766258.352206,312
1685766258.3690875,314
1685766258.380929,315
1685766258.3928442,314
1685766258.4095058,311
1685766258.4220452,310
1685766258.4380312,311
1685766258.4507666,313
1685766258.463125,314
1685766258.4791825,312
1685766258.491518,310
1685766258.5035708,309
1685766258.5203319,310
1685766258.5324247,311
1685766258.5444736,310
1685766258.5611608,309
1685766258.5731626,308
1685766258.586153,306
1685766258.6022494,308
1685766258.614259,309
1685766258.6312695,308
1685766258.6432629,307
1685766258.6552093,305
1685766258.6716073,305
1685766258.6846664,305
1685766258.6958315,306
1685766258.7125623,304
1685766258.7244983,303
1685766258.7368708,301
1685766258.7540307,303
1685766258.7660296,305
1685766258.7825058,305
1685766258.794855,304
1685766258.80721,302
1685766258.8240733,301
1685766258.835576,303
1685766258.8475912,304
1685766258.8640852,304
1685766258.8761873,303
1685766258.8891237,301
1685766258.9053328,302
1685766258.9172034,303
1685766258.930211,305
1685766258.946294,304
1685766258.9582024,304
1685766258.974995,303
1685766258.9873621,305
1685766258.9996865,307
1685766259.0155013,308
1685766259.0276856,308
1685766259.0406969,306
1685766259.0570574,305
1685766259.0699267,308
1685766259.0819178,310
1685766259.097915,311
1685766259.1105,310
1685766259.1266167,308
1685766259.1386266,308
1685766259.1507747,310
1685766259.1677296,313
1685766259.1796775,314
1685766259.1920717,313
1685766259.2084076,312
1685766259.2207704,313
1685766259.2328553,316
1685766259.2494845,318
1685766259.2616704,319
1685766259.2776942,318
1685766259.2904744,318
1685766259.302351,320
1685766259.3182776,323
1685766259.331314,326
1685766259.343679,325
1685766259.3594842,324
1685766259.3725245,324
1685766259.3845224,326
1685766259.4009018,328
1685766259.4135172,329
1685766259.4255557,328
1685766259.4417217,327
1685766259.4543352,327
1685766259.4706645,329
1685766259.4827812,331
1685766259.495372,331
1685766259.51182,330
1685766259.5241694,329
1685766259.5357263,328
1685766259.5524013,330
1685766259.5644598,331
1685766259.5766213,330
1685766259.5935657,328
1685766259.6055627,325
1685766259.6218147,326
1685766259.635133,329
1685766259.6470673,330
1685766259.6624792,324
1685766259.6752262,314
1685766259.6880093,306
1685766259.7037075,305
1685766259.7163372,306
1685766259.7285721,309
1685766259.7444234,311
1685766259.7573829,312
1685766259.7733734,314
1685766259.7857687,319
1685766259.7979643,322
1685766259.8146076,324
1685766259.8271785,323
1685766259.8391335,321
1685766259.8556762,322
1685766259.8683221,325
1685766259.8794572,327
1685766259.896512,326
1685766259.9089959,324
1685766259.9204814,322
1685766259.937468,323
1685766259.950029,326
1685766259.9661348,326
1685766259.978672,325
1685766259.9907339,323
1685766260.0063996,321
1685766260.019402,323
1685766260.0318387,325
1685766260.0481298,325
1685766260.0602915,323
1685766260.0730233,319
1685766260.0885112,318
1685766260.1014397,320
1685766260.1169484,321
1685766260.1302817,321
1685766260.1421645,318
1685766260.158766,316
1685766260.171231,316
1685766260.1834042,318
1685766260.1997743,319
1685766260.2114117,318
1685766260.2242603,315
1685766260.2407403,312
1685766260.252447,313
1685766260.2651887,316
1685766260.2814708,316
1685766260.293817,315
1685766260.3095953,312
1685766260.3227794,311
1685766260.3349357,312
1685766260.3503757,314
1685766260.3636017,315
1685766260.3754182,312
1685766260.391608,309
1685766260.4045072,308
1685766260.4168873,311
1685766260.4331818,312
1685766260.445303,312
1685766260.461676,310
1685766260.474345,308
1685766260.486075,308
1685766260.503084,311
1685766260.5143633,312
1685766260.5274332,311
1685766260.5434594,308
1685766260.555337,306
1685766260.5685637,307
1685766260.5850112,308
1685766260.5972998,309
1685766260.6125858,307
1685766260.6251647,304
1685766260.6371572,303
1685766260.6541643,304
1685766260.6666121,306
1685766260.6784005,306
1685766260.6954064,304
1685766260.707595,301
1685766260.720071,301
1685766260.736301,303
1685766260.748488,304
1685766260.7609324,304
1685766260.7768683,302
1685766260.7895622,299
1685766260.8056047,299
1685766260.8183541,302
1685766260.830584,303
1685766260.8468647,302
1685766260.8590229,299
1685766260.8710759,297
1685766260.8870275,299
1685766260.900035,301
1685766260.9120204,302
1685766260.9280741,300
1685766260.9410276,298
1685766260.9570231,297
1685766260.9692442,298
1685766260.9812503,300
1685766260.9981856,300
1685766261.010247,298
1685766261.0222485,295
1685766261.0391884,295
1685766261.051191,297
1685766261.0632253,299
1685766261.0801842,299
1685766261.0917392,297
1685766261.1047733,295
1685766261.120957,296
1685766261.1334796,299
1685766261.1495132,300
1685766261.1619165,300
1685766261.1745508,298
1685766261.1904886,296
1685766261.202506,298
1685766261.2156706,301
1685766261.2310505,302
1685766261.2440026,301
1685766261.2567103,299
1685766261.2725215,298
1685766261.2855883,300
1685766261.3016267,302
1685766261.3136258,303
1685766261.3256228,301
1685766261.3416255,299
1685766261.3546238,299
1685766261.3666246,301
1685766261.3828955,303
1685766261.3959787,303
1685766261.408018,302
1685766261.4243062,299
1685766261.4367485,300
1685766261.4521585,303
1685766261.4646733,304
1685766261.47767,304
1685766261.4933376,301
1685766261.5053353,300
1685766261.518402,301
1685766261.5343647,304
1685766261.5474122,305
1685766261.5589085,304
1685766261.5760553,302
1685766261.5876975,301
1685766261.601121,303
1685766261.616642,305
1685766261.6293964,306
1685766261.64534,304
1685766261.6578465,302
1685766261.6705372,302
1685766261.686537,304
1685766261.6985338,306
1685766261.7105453,306
1685766261.7266324,304
1685766261.7397,302
1685766261.7513092,303
1685766261.767964,305
1685766261.7809117,307
1685766261.7967694,306
1685766261.8093631,304
1685766261.8213627,302
1685766261.8383865,304
1685766261.8502572,307
1685766261.862514,307
1685766261.8791952,306
1685766261.8913822,303
1685766261.903504,302
1685766261.9193132,304
1685766261.9323187,306
1685766261.9444048,307
1685766261.9605515,305
1685766261.9733987,303
1685766261.9895499,303
1685766262.0014765,305
1685766262.013379,307
1685766262.030162,306
1685766262.0428362,304
1685766262.0547817,301
1685766262.0714843,302
1685766262.0831907,304
1685766262.0962574,305
1685766262.1122255,304
1685766262.1244934,302
1685766262.1404765,300
1685766262.1524847,301
1685766262.1654773,303
1685766262.1815412,304
1685766262.1941366,303
1685766262.2062268,300
1685766262.223167,299
1685766262.2354138,301
1685766262.24748,304
1685766262.2636402,304
1685766262.2755706,303
1685766262.2916327,300
1685766262.3052688,300
1685766262.3166077,303
1685766262.333682,304
1685766262.345773,304
1685766262.3578277,302
1685766262.3741765,301
1685766262.3865385,302
1685766262.3985393,305
1685766262.4155915,307
1685766262.4279256,306
1685766262.440348,305
1685766262.4559479,304
1685766262.4686615,306
1685766262.4845824,309
1685766262.497398,311
1685766262.509398,311
1685766262.5254586,309
1685766262.5384924,309
1685766262.5506985,313
1685766262.5672336,316
1685766262.5794058,318
1685766262.59146,318
1685766262.6075258,317
1685766262.6204164,319
1685766262.6367218,322
1685766262.6493137,325
1685766262.661341,327
1685766262.6776288,326
1685766262.6895256,325
1685766262.7024121,326
1685766262.7187288,329
1685766262.7302496,331
1685766262.7429428,331
1685766262.7595818,329
1685766262.7721062,328
1685766262.784005,330
1685766262.7999864,332
1685766262.8128867,334
1685766262.8292758,332
1685766262.8414915,330
1685766262.8535447,329
1685766262.8694866,330
1685766262.8824978,332
1685766262.894502,331
1685766262.9105453,329
1685766262.923371,326
1685766262.935408,324
1685766262.951452,325
1685766262.9644418,326
1685766262.9810512,325
1685766262.9926832,323
1685766263.004631,320
1685766263.021626,320
1685766263.034317,322
1685766263.045489,324
1685766263.0623598,324
1685766263.0751872,322
1685766263.0871649,321
1685766263.1032321,324
1685766263.1159966,327
1685766263.1316965,329
1685766263.1437442,329
1685766263.156841,328
1685766263.1734126,328
1685766263.1855867,331
1685766263.1973615,334
1685766263.2135446,335
1685766263.2265587,334
1685766263.2385535,332
1685766263.2554495,333
1685766263.267499,337
1685766263.2799706,339
1685766263.296391,339
1685766263.3083966,338
1685766263.324646,337
1685766263.3366733,337
1685766263.3486788,339
1685766263.3652518,339
1685766263.3783157,335
1685766263.390454,322
1685766263.4067767,318
1685766263.418197,323
1685766263.431352,329
1685766263.4474497,333
1685766263.4601912,334
1685766263.4762955,333
1685766263.4882982,334
1685766263.500949,336
1685766263.5172684,339
1685766263.529275,340
1685766263.5413845,338
1685766263.5583873,335
1685766263.570215,334
1685766263.582254,335
1685766263.599201,335
1685766263.6111977,333
1685766263.623299,331
1685766263.6399634,328
1685766263.6524782,328
1685766263.6690807,327
1685766263.681155,326
1685766263.6931694,323
1685766263.7094016,319
1685766263.7216902,315
1685766263.734205,306
1685766263.7510958,309
1685766263.7630494,309
1685766263.7750518,309
1685766263.7922626,306
1685766263.803518,305
1685766263.8199499,307
1685766263.832382,307
1685766263.8450878,306
1685766263.8610656,303
1685766263.8733637,300
1685766263.8854003,299
1685766263.902505,301
1685766263.9145288,302
1685766263.926293,303
1685766263.9429572,301
1685766263.9554195,299
1685766263.971356,299
1685766263.984347,300
1685766263.9963882,300
1685766264.012469,296
1685766264.0244122,287
1685766264.0372765,283
1685766264.0540156,286
1685766264.065957,290
1685766264.0784686,292
1685766264.0941372,294
1685766264.107151,293
1685766264.1193724,294
1685766264.1353135,297
1685766264.148366,299
1685766264.1643536,300
1685766264.1769943,299
1685766264.189334,296
1685766264.205325,296
1685766264.2173817,298
1685766264.2295923,300
1685766264.2463372,299
1685766264.2584004,300
1685766264.270657,298
1685766264.2873406,298
1685766264.299671,299
1685766264.3161116,300
1685766264.328335,298
1685766264.3402011,293
1685766264.356452,288
1685766264.3689508,289
1685766264.3815854,293
1685766264.3979263,295
1685766264.4104068,297
1685766264.4224005,296
1685766264.4390519,297
1685766264.4514139,301
1685766264.4635088,303
1685766264.4792056,303
1685766264.49179,302
1685766264.5078363,300
1685766264.52073,300
1685766264.533048,302
1685766264.5490022,304
1685766264.5613217,303
1685766264.573324,300
1685766264.5902154,298
1685766264.6023374,297
1685766264.6144745,299
1685766264.631548,299
1685766264.643568,296
1685766264.6603038,291
1685766264.6722689,289
1685766264.6841204,290
1685766264.7010012,293
1685766264.7135363,293
1685766264.7259324,293
1685766264.7414453,290
1685766264.7543895,290
1685766264.7666907,292
1685766264.7822144,294
1685766264.795276,294
1685766264.8113139,292
1685766264.8239782,290
1685766264.836313,291
1685766264.8527014,294
1685766264.8646963,296
1685766264.87735,296
1685766264.8935099,294
1685766264.9057648,293
1685766264.917871,293
1685766264.934329,295
1685766264.9464567,296
1685766264.959056,296
1685766264.9751542,294
1685766264.9871294,294
1685766265.003545,295
1685766265.0155296,297
1685766265.0285091,298
1685766265.0453484,298
1685766265.0573325,297
1685766265.0693247,297
1685766265.086337,299
1685766265.0983691,300
1685766265.1103568,301
1685766265.1267076,300
1685766265.138713,299
1685766265.1552074,299
1685766265.167908,301
1685766265.180237,303
1685766265.1965747,303
1685766265.2080128,303
1685766265.2210186,302
1685766265.237026,303
1685766265.2503378,306
1685766265.2618585,308
1685766265.2785113,308
1685766265.2906911,307
1685766265.3066854,307
1685766265.3194659,309
1685766265.3314283,312
1685766265.3474097,313
1685766265.3604062,313
1685766265.3727221,312
1685766265.3884504,312
1685766265.401279,315
1685766265.4134429,316
1685766265.4303813,317
1685766265.4419248,317
1685766265.4542127,315
1685766265.470937,316
1685766265.483346,318
1685766265.5004132,320
1685766265.5117018,320
1685766265.524521,320
1685766265.5404844,319
1685766265.5524771,320
1685766265.565261,322
1685766265.5812616,322
1685766265.593397,322
1685766265.605853,321
1685766265.6225173,319
1685766265.6351724,320
1685766265.6510549,322
1685766265.663496,323
1685766265.675943,321
1685766265.6927266,320
1685766265.7043386,320
1685766265.7163439,321
1685766265.7333403,323
1685766265.7453303,324
1685766265.7574,323
1685766265.773784,322
1685766265.7864866,322
1685766265.798972,324
1685766265.8150473,325
1685766265.8270414,326
1685766265.843804,325
1685766265.8557174,324
1685766265.8684075,324
1685766265.8848133,325
1685766265.8973014,326
1685766265.9094021,325
1685766265.9258964,323
1685766265.938004,322
1685766265.9494596,323
1685766265.9667459,325
1685766265.978859,325
1685766265.995303,324
1685766266.007234,322
1685766266.019976,321
1685766266.035918,322
1685766266.0478756,323
1685766266.060813,322
1685766266.076868,321
1685766266.089131,319
1685766266.1011882,318
1685766266.1183946,319
1685766266.130402,320
1685766266.1427236,319
1685766266.1587658,318
1685766266.1712246,316
1685766266.1880336,316
1685766266.2001836,317
1685766266.2124205,318
1685766266.2284203,317
1685766266.2410395,315
1685766266.2525642,314
1685766266.2694104,314
1685766266.2813702,315
1685766266.2940934,315
1685766266.310911,314
1685766266.3229105,312
1685766266.338939,310
1685766266.3514304,312
1685766266.3642497,312
1685766266.3804948,312
1685766266.3924148,311
1685766266.404211,309
1685766266.4209926,308
1685766266.4330463,309
1685766266.4455097,310
1685766266.4624004,310
1685766266.4741857,308
1685766266.489868,306
1685766266.5032854,307
1685766266.5147777,308
1685766266.5314286,308
1685766266.5434542,306
1685766266.5565836,304
1685766266.5722282,302
1685766266.5852685,302
1685766266.596735,304
1685766266.6136186,304
1685766266.6256182,303
1685766266.6386113,302
1685766266.654605,301
1685766266.6669703,303
1685766266.6833963,305
1685766266.6958578,306
1685766266.7077944,304
1685766266.7244287,303
1685766266.7364848,303
1685766266.7495396,305
1685766266.7654037,307
1685766266.777603,306
1685766266.7897234,305
1685766266.806196,304
1685766266.8185227,304
1685766266.8352466,306
1685766266.8471897,307
1685766266.859231,306
1685766266.8754222,305
1685766266.8883934,304
1685766266.9004009,304
1685766266.9171758,305
1685766266.9294007,306
1685766266.9410682,305
1685766266.9573772,303
1685766266.9698756,303
1685766266.9824004,305
1685766266.9990897,306
1685766267.0111473,306
1685766267.0273197,305
1685766267.0396326,303
1685766267.051358,303
1685766267.068447,305
1685766267.0808227,305
1685766267.0926924,305
1685766267.1086938,304
1685766267.1211863,303
1685766267.133901,303
1685766267.149996,305
1685766267.1626477,306
1685766267.178776,306
1685766267.1916413,305
1685766267.2036004,304
1685766267.2202098,305
1685766267.2322688,307
1685766267.2445889,308
1685766267.2601776,307
1685766267.2725458,305
1685766267.2852333,305
1685766267.3016067,306
1685766267.3143022,308
1685766267.3303444,308
1685766267.3425057,307
1685766267.3545,305
1685766267.371389,305
1685766267.38306,307
1685766267.3962135,307
1685766267.411872,307
1685766267.4245284,305
1685766267.4369678,304
1685766267.4533918,304
1685766267.4653504,305
1685766267.477405,306
1685766267.4944482,306
1685766267.5059855,304
1685766267.5223713,304
1685766267.535569,304
1685766267.5473452,306
1685766267.5637946,306
1685766267.5763607,305
1685766267.588366,303
1685766267.604296,303
1685766267.6171854,304
1685766267.6300218,305
1685766267.6452546,305
1685766267.6582906,304
1685766267.6743312,303
1685766267.6863306,303
1685766267.6993375,304
1685766267.7153828,305
1685766267.7273476,305
1685766267.739331,304
1685766267.7566683,302
1685766267.768344,302
1685766267.7810144,305
1685766267.7972653,306
1685766267.8094153,305
1685766267.8263392,304
1685766267.8378277,303
1685766267.8508813,304
1685766267.8667624,306
1685766267.8795352,307
1685766267.891391,306
1685766267.9077635,304
1685766267.9203925,304
1685766267.9323897,305
1685766267.9484446,306
1685766267.9613912,307
1685766267.9733877,306
1685766267.9894452,304
1685766268.0023983,304
1685766268.0184054,306
1685766268.0303895,307
1685766268.0430222,308
1685766268.059402,307
1685766268.0714035,306
1685766268.083392,307
1685766268.1003902,309
1685766268.1124513,311
1685766268.1244588,311
1685766268.1413975,310
1685766268.1534402,309
1685766268.1695213,311
1685766268.1823905,314
1685766268.194487,315
1685766268.210489,314
1685766268.2229674,314
1685766268.2359443,313
1685766268.2514954,315
1685766268.264332,317
1685766268.2763274,318
1685766268.2933145,317
1685766268.305258,316
1685766268.317401,317
1685766268.3343484,319
1685766268.3463988,320
1685766268.3629723,320
1685766268.3743076,319
1685766268.3874564,317
1685766268.4039822,318
1685766268.4154973,320
1685766268.4283679,321
1685766268.4443648,320
1685766268.4561892,318
1685766268.4689472,317
1685766268.4851618,318
1685766268.4980073,319
1685766268.5142586,320
1685766268.5264964,319
1685766268.5391676,317
1685766268.555409,316
1685766268.567345,317
1685766268.580084,318
1685766268.5963218,318
1685766268.6083834,317
1685766268.6212907,315
1685766268.6372974,315
1685766268.650475,316
1685766268.665211,317
1685766268.6783214,317
1685766268.6903787,315
1685766268.7063844,313
1685766268.7183816,314
1685766268.731339,316
1685766268.7479784,316
1685766268.7593994,315
1685766268.7724473,313
1685766268.7883446,312
1685766268.800924,313
1685766268.8133917,314
1685766268.829714,315
1685766268.8417566,313
1685766268.8583465,311
1685766268.87005,309
1685766268.8824053,308
1685766268.899357,308
1685766268.911498,308
1685766268.9233434,305
1685766268.940352,302
1685766268.9525132,302
1685766268.9649622,304
1685766268.9811125,305
1685766268.9936688,306
1685766269.0094128,305
1685766269.0214484,304
1685766269.0344956,304
1685766269.0508924,305
1685766269.063165,306
1685766269.075199,305
1685766269.091829,304
1685766269.104364,302
1685766269.1163712,303
1685766269.1324348,305
1685766269.145325,306
1685766269.1573758,305
1685766269.1738415,304
1685766269.186166,304
1685766269.2024183,305
1685766269.2142482,307
1685766269.2265282,307
1685766269.2425792,305
1685766269.2553282,303
1685766269.267331,303
1685766269.28433,304
1685766269.2963552,306
1685766269.3083527,306
1685766269.324757,305
1685766269.3375976,304
1685766269.3536274,304
1685766269.366277,306
1685766269.3784683,308
1685766269.3947423,309
1685766269.407316,308
1685766269.4189792,308
1685766269.4354908,309
1685766269.4478092,312
1685766269.4601808,312
1685766269.4773703,312
1685766269.4882553,311
1685766269.505222,311
1685766269.5178797,313
1685766269.5303173,315
1685766269.546508,316
1685766269.5590105,316
1685766269.5704384,316
1685766269.587296,319
1685766269.5994382,322
1685766269.6119347,324
1685766269.6284397,324
1685766269.6404383,324
1685766269.653237,322
1685766269.6696355,323
1685766269.6816742,324
1685766269.6980188,325
1685766269.7097208,323
1685766269.722457,321
1685766269.7386408,318
1685766269.751302,319
1685766269.7633054,320
1685766269.7793229,319
1685766269.7918522,318
1685766269.8042867,315
1685766269.8203056,315
1685766269.8337374,315
1685766269.8495936,317
1685766269.8616273,317
1685766269.8743086,316
1685766269.8901868,314
1685766269.9024086,314
1685766269.915257,316
1685766269.931504,317
1685766269.9437525,317
1685766269.9556618,316
1685766269.9719288,315
1685766269.984978,315
1685766269.9972637,316
1685766270.0132825,318
1685766270.0252333,317
1685766270.042293,315
1685766270.0543222,314
1685766270.0663946,315
1685766270.0829806,316
1685766270.095398,317
1685766270.1071665,315
1685766270.1239605,312
1685766270.136253,310
1685766270.148001,311
1685766270.1643167,311
1685766270.1773367,310
1685766270.1931765,308
1685766270.205585,306
1685766270.2181633,306
1685766270.2341173,307
1685766270.2466085,308
1685766270.2586298,307
1685766270.2749202,305
1685766270.2878513,304
1685766270.2998502,305
1685766270.3163948,308
1685766270.3285172,309
1685766270.3444855,309
1685766270.3574152,308
1685766270.3696074,307
1685766270.3858035,308
1685766270.3975742,310
1685766270.4100251,311
1685766270.42703,310
1685766270.439026,309
1685766270.4510267,309
1685766270.4680297,311
1685766270.4800372,313
1685766270.4923952,313
1685766270.508334,312
1685766270.5213344,311
1685766270.5373323,311
1685766270.5493307,313
1685766270.5613418,315
1685766270.5782852,314
1685766270.590134,313
1685766270.6023643,312
1685766270.6192577,312
1685766270.6318026,314
1685766270.6443818,314
1685766270.6603322,313
1685766270.6733763,311
1685766270.689284,310
1685766270.7014906,311
1685766270.7131836,312
1685766270.7303681,312
1685766270.7423728,311
1685766270.7541573,309
1685766270.7709038,308
1685766270.782565,310
1685766270.7955692,311
1685766270.8115678,312
1685766270.8235874,311
1685766270.8402953,309
1685766270.8533392,309
1685766270.8653457,310
1685766270.8813858,311
1685766270.8935924,311
1685766270.9062505,310
1685766270.922384,308
1685766270.934225,308
1685766270.946879,310
1685766270.9635427,310
1685766270.9753103,310
1685766270.9881968,308
1685766271.0040264,306
1685766271.0167563,307
1685766271.033302,309
1685766271.0455198,309
1685766271.0574336,308
1685766271.0734663,306
1685766271.0860665,306
1685766271.0983431,307
1685766271.1150956,308
1685766271.1274295,309
1685766271.1396508,309
1685766271.1568966,308
1685766271.1683044,308
1685766271.1849597,311
1685766271.1970472,312
1685766271.2092018,312
1685766271.2257216,310
1685766271.237243,309
1685766271.2503288,309
1685766271.2660806,311
1685766271.2784822,313
1685766271.2905483,312
1685766271.3069913,311
1685766271.3193839,309
1685766271.331492,310
1685766271.348424,311
1685766271.3604877,312
1685766271.377386,311
1685766271.3893857,309
1685766271.4018245,308
1685766271.4183757,309
1685766271.431146,310
1685766271.4430075,310
1685766271.4590256,309
1685766271.471659,308
1685766271.4837377,308
1685766271.5003738,310
1685766271.5123856,311
1685766271.5290763,311
1685766271.541024,309
1685766271.5532966,307
1685766271.5696094,307
1685766271.5823421,308
1685766271.5943997,309
1685766271.6104376,308
1685766271.6231499,306
1685766271.6353128,305
1685766271.6508934,305
1685766271.6645815,307
1685766271.6800466,307
1685766271.6928864,307
1685766271.7048948,305
1685766271.7213933,305
1685766271.733338,307
1685766271.7461772,308
1685766271.7622085,308
1685766271.774229,308
1685766271.7870653,306
1685766271.803459,306
1685766271.8153386,306
1685766271.8275497,307
1685766271.844366,306
1685766271.856461,305
1685766271.872481,303
1685766271.8847263,304
1685766271.8968182,306
1685766271.9134994,307
1685766271.9260983,306
1685766271.938356,305
1685766271.9544334,304
1685766271.9668348,305
1685766271.97932,307
1685766271.9960067,307
1685766272.007617,306
1685766272.024181,303
1685766272.0368123,303
1685766272.0492253,304
1685766272.0653255,305
1685766272.0770688,306
1685766272.0901682,304
1685766272.1062224,302
1685766272.1191778,303
1685766272.1303816,305
1685766272.1473808,306
1685766272.1595807,306
1685766272.1720617,306
1685766272.1882968,304
1685766272.2003057,305
1685766272.2171428,308
1685766272.2291224,310
1685766272.2414289,310
1685766272.2575169,309
1685766272.2701404,308
1685766272.2824929,310
1685766272.2984116,311
1685766272.3108516,313
1685766272.3235962,313
1685766272.3399878,312
1685766272.352003,312
1685766272.3673468,314
1685766272.3818858,316
1685766272.3931608,316
1685766272.4090984,315
1685766272.4213514,314
1685766272.4335895,314
1685766272.450408,316
1685766272.4622607,318
1685766272.4750667,317
1685766272.4917839,316
1685766272.5033846,315
1685766272.5188622,315
1685766272.5323768,317
1685766272.5445817,317
1685766272.5604587,317
1685766272.5733242,316
1685766272.5855312,315
1685766272.6012852,316
1685766272.614317,317
1685766272.626439,318
1685766272.6424668,317
1685766272.6553056,316
1685766272.6675591,315
1685766272.684012,316
1685766272.6959481,318
1685766272.7124655,318
1685766272.7251039,318
1685766272.7369292,316
1685766272.7536325,316
1685766272.765875,317
1685766272.777879,319
1685766272.794481,319
1685766272.8067908,318
1685766272.8189855,316
1685766272.8353586,316
1685766272.8479767,317
1685766272.8640702,318
1685766272.876107,317
1685766272.8884523,316
1685766272.9047463,315
1685766272.917484,315
1685766272.9294348,317
1685766272.9454002,317
1685766272.9587188,317
1685766272.9706924,315
1685766272.9866924,314
1685766272.9990883,315
1685766273.0115566,316
1685766273.0280857,316
1685766273.04028,315
1685766273.056463,314
1685766273.0683959,314
1685766273.0813816,315
1685766273.097314,316
1685766273.1097038,316
1685766273.1218421,314
1685766273.138083,313
1685766273.1500163,313
1685766273.1632721,315
1685766273.178936,316
1685766273.1910005,315
1685766273.2083347,314
1685766273.2203937,313
1685766273.2327898,315
1685766273.2493472,317
1685766273.2608004,319
1685766273.2734962,318
1685766273.2900264,317
1685766273.302074,316
1685766273.3147173,317
1685766273.3307738,318
1685766273.34327,318
1685766273.3596945,317
1685766273.3716486,314
1685766273.3843431,313
1685766273.400617,315
1685766273.412999,315
1685766273.4247723,315
1685766273.4416175,313
1685766273.453732,311
1685766273.466234,311
1685766273.4827,313
1685766273.495684,313
1685766273.5070198,312
1685766273.5233045,310
1685766273.535049,309
1685766273.552004,309
1685766273.564048,311
1685766273.5763214,311
1685766273.5930378,310
1685766273.6055913,309
1685766273.617669,308
1685766273.633593,309
1685766273.6456265,311
1685766273.6585984,311
1685766273.6749282,310
1685766273.6876104,308
1685766273.7033947,307
1685766273.71588,309
1685766273.7276359,309
1685766273.744587,309
1685766273.757098,307
1685766273.7691066,305
1685766273.7851574,305
1685766273.7980838,306
1685766273.8101063,307
1685766273.8260849,306
1685766273.8391004,304
1685766273.8511794,303
1685766273.8673613,304
1685766273.8794076,305
1685766273.8960817,305
1685766273.9085932,305
1685766273.9205859,303
1685766273.9365916,301
1685766273.9496439,303
1685766273.961594,304
1685766273.977643,304
1685766273.9906523,303
1685766274.0025952,301
1685766274.0185943,301
1685766274.030581,303
1685766274.0476205,304
1685766274.0598986,304
1685766274.0716455,303
1685766274.0886543,301
1685766274.10059,301
1685766274.1131828,303
1685766274.1288645,304
1685766274.1421347,303
1685766274.1539142,302
1685766274.1705797,301
1685766274.1835606,302
1685766274.1986234,304
1685766274.2115831,305
1685766274.2235844,305
1685766274.2395656,303
1685766274.2525797,302
1685766274.2645783,303
1685766274.2806091,304
1685766274.2935936,304
1685766274.3053396,304
1685766274.3222797,301
1685766274.3343213,300
1685766274.346516,302
1685766274.3632753,302
1685766274.3752286,302
1685766274.3912153,301
1685766274.4042175,300
1685766274.4163094,300
1685766274.4325547,301
1685766274.444293,303
1685766274.4572372,303
1685766274.4732277,302
1685766274.486251,301
1685766274.498229,302
1685766274.514292,304
1685766274.5263238,305
1685766274.54319,305
1685766274.5558903,304
1685766274.56789,304
1685766274.5840974,305
1685766274.596413,307
1685766274.608946,307
1685766274.6251423,306
1685766274.6373625,306
1685766274.6499438,306
1685766274.665948,307
1685766274.6785595,309
1685766274.694562,310
1685766274.7071702,310
1685766274.7195632,309
1685766274.7359145,310
1685766274.7480237,312
1685766274.7600613,312
1685766274.7763398,312
1685766274.789075,310
1685766274.801444,308
1685766274.817625,308
1685766274.8299136,309
1685766274.8422942,310
1685766274.8583794,309
1685766274.8710604,306
1685766274.8873293,305
1685766274.8993437,305
1685766274.9116533,305
1685766274.9283042,305
1685766274.9403217,303
1685766274.9523072,300
1685766274.9692583,298
1685766274.9812644,299
1685766274.993574,299
1685766275.0102835,298
1685766275.0222764,297
1685766275.0380511,295
1685766275.0510075,295
1685766275.063052,298
1685766275.0800116,299
1685766275.0920067,300
1685766275.1040509,299
1685766275.1203344,300
1685766275.1329896,302
1685766275.1460695,305
1685766275.161309,309
1685766275.1740546,311
1685766275.1862907,312
1685766275.2023141,314
1685766275.214653,318
1685766275.2315118,323
1685766275.243268,327
1685766275.2559385,328
1685766275.272016,327
1685766275.2840462,327
1685766275.2969797,326
1685766275.312997,325
1685766275.3249826,322
1685766275.3380022,317
1685766275.3542144,311
1685766275.3665702,308
1685766275.382542,305
1685766275.394558,303
1685766275.4078984,300
1685766275.4237483,296
1685766275.4363465,292
1685766275.4484973,290
1685766275.4646592,291
1685766275.4773471,292
1685766275.4893806,291
1685766275.5053694,290
1685766275.5183592,289
1685766275.5338926,291
1685766275.546251,294
1685766275.5585349,297
1685766275.5753093,298
1685766275.5873594,298
1685766275.6002984,299
1685766275.616527,303
1685766275.6285138,305
1685766275.6407766,305
1685766275.6575608,304
1685766275.6695223,302
1685766275.681824,302
1685766275.6985035,304
1685766275.7106233,305
1685766275.7266138,304
1685766275.739594,303
1685766275.7515538,302
1685766275.7675323,304
1685766275.7805576,306
1685766275.7925503,307
1685766275.808564,306
1685766275.82115,306
1685766275.8332684,305
1685766275.8499775,307
1685766275.8622603,310
1685766275.8782756,311
1685766275.890949,311
1685766275.9029696,309
1685766275.919289,310
1685766275.9320152,312
1685766275.9439476,313
1685766275.9602752,314
1685766275.971954,313
1685766275.9849653,311
1685766276.0009477,311
1685766276.013271,313
1685766276.0259628,314
1685766276.0422885,314
1685766276.0539532,314
1685766276.0711489,313
1685766276.0832818,313
1685766276.0949726,315
1685766276.1116593,316
1685766276.123724,317
1685766276.1366668,315
1685766276.1529448,315
1685766276.1656752,317
1685766276.1776693,320
1685766276.1939425,322
1685766276.2066739,321
1685766276.2226741,320
1685766276.2346513,320
1685766276.2469702,321
1685766276.263655,323
1685766276.2756746,323
1685766276.2876697,322
1685766276.304723,320
1685766276.3168108,321
1685766276.3296812,322
1685766276.3456826,322
1685766276.3576741,320
1685766276.3699398,318
1685766276.3866253,315
1685766276.3986452,315
1685766276.414952,316
1685766276.4276376,315
1685766276.4400227,314
1685766276.4559133,312
1685766276.4679759,310
1685766276.4804633,311
1685766276.4967515,313
1685766276.5094504,313
1685766276.5211086,312
1685766276.5380692,311
1685766276.5500526,310
1685766276.5664363,312
1685766276.579052,313
1685766276.5910532,313
1685766276.6073697,311
1685766276.619754,311
1685766276.631416,310
1685766276.6484342,313
1685766276.660728,315
1685766276.6734316,315
1685766276.6895003,314
1685766276.7014103,313
1685766276.717439,314
1685766276.7304232,317
1685766276.7424154,317
1685766276.7594278,316
1685766276.7714524,313
1685766276.7834396,312
1685766276.7995868,312
1685766276.812434,313
1685766276.8247342,313
1685766276.8404365,312
1685766276.8534296,310
1685766276.8656244,310
1685766276.8817742,313
1685766276.8944159,315
1685766276.9104302,315
1685766276.9224188,314
1685766276.9354782,314
1685766276.9514272,315
1685766276.9634259,318
1685766276.9764464,318
1685766276.9929616,317
1685766277.0051525,316
1685766277.0170882,314
1685766277.0334847,313
1685766277.0458832,313
1685766277.0619328,312
1685766277.0745637,309
1685766277.0865667,306
1685766277.1026309,304
1685766277.1155753,303
1685766277.1275845,304
1685766277.1438208,304
1685766277.1566334,302
1685766277.168584,299
1685766277.1845784,299
1685766277.1975775,300
1685766277.2096958,302
1685766277.225764,301
1685766277.2378209,301
1685766277.2548883,299
1685766277.2667801,301
1685766277.2790725,303
1685766277.2958624,304
1685766277.30817,304
1685766277.3199053,304
1685766277.336919,304
1685766277.3490274,305
1685766277.3608449,307
1685766277.3772306,308
1685766277.3898752,307
1685766277.4058518,306
1685766277.4181795,305
1685766277.4308617,307
1685766277.4469066,308
1685766277.4597607,308
1685766277.4722369,307
1685766277.488168,305
1685766277.4999762,305
1685766277.5128899,306
1685766277.5290885,308
1685766277.5413642,307
1685766277.5573795,306
1685766277.5704215,304
1685766277.5820508,304
1685766277.5982208,306
1685766277.611219,306
1685766277.623379,305
1685766277.6392374,303
1685766277.6523275,302
1685766277.6642373,302
1685766277.6808145,304
1685766277.6928031,305
1685766277.7048492,305
1685766277.7218506,303
1685766277.7338054,303
1685766277.7501297,305
1685766277.7628102,308
1685766277.7748015,309
1685766277.79117,309
1685766277.8038666,307
1685766277.8158112,308
1685766277.83186,311
1685766277.8448558,313
1685766277.8567977,313
1685766277.8730953,312
1685766277.8847928,310
1685766277.9021199,312
1685766277.9141452,314
1685766277.9258492,316
1685766277.9428306,316
1685766277.9551368,315
1685766277.9668312,316
1685766277.9838445,318
1685766277.996507,321
1685766278.008227,321
1685766278.0249186,320
1685766278.0369232,320
1685766278.0529635,319
1685766278.06591,321
1685766278.0779426,324
1685766278.094302,322
1685766278.1063137,324
1685766278.11886,322
1685766278.134958,324
1685766278.1468935,327
1685766278.1599796,329
1685766278.175984,329
1685766278.1882741,327
1685766278.200931,324
1685766278.2169526,320
1685766278.2288837,317
1685766278.2459595,310
1685766278.2579267,301
1685766278.270882,292
1685766278.2869008,284
1685766278.2988946,278
1685766278.3112195,273
1685766278.3276927,268
1685766278.3403897,265
1685766278.3523946,262
1685766278.3684509,260
1685766278.3807256,262
1685766278.397121,264
1685766278.4094367,265
1685766278.4221165,266
1685766278.4381194,267
1685766278.4501073,270
1685766278.4631693,274
1685766278.479104,279
1685766278.4911692,282
1685766278.503174,283
1685766278.519823,285
1685766278.5321949,288
1685766278.5448723,293
1685766278.5611637,297
1685766278.5738535,299
1685766278.58987,300
1685766278.6019247,301
1685766278.6142287,302
1685766278.6308653,304
1685766278.6432536,304
1685766278.6557066,302
1685766278.6716864,299
1685766278.6837122,298
1685766278.6967409,298
1685766278.7128127,300
1685766278.7247002,300
1685766278.7410853,299
1685766278.7537014,298
1685766278.765692,299
1685766278.7826827,301
1685766278.794698,303
1685766278.8072762,302
1685766278.8233495,301
1685766278.8353884,300
1685766278.8481057,301
1685766278.8641462,303
1685766278.876995,304
1685766278.8928578,304
1685766278.9054236,303
1685766278.9176602,303
1685766278.9340255,304
1685766278.9464204,306
1685766278.9586072,307
1685766278.9743671,306
1685766278.9875195,305
1685766278.999022,305
1685766279.0190177,307
1685766279.028016,309
1685766279.0400693,310
1685766279.0570252,309
1685766279.0690289,309
1685766279.085025,310
1685766279.0980217,313
1685766279.1103528,316
1685766279.126674,316
1685766279.13877,316
1685766279.1508522,315
1685766279.1674716,315
1685766279.1792223,318
1685766279.1919482,319
1685766279.2078683,318
1685766279.2207725,317
1685766279.2370596,316
1685766279.249812,317
1685766279.2614043,318
1685766279.2774749,318
1685766279.2904093,318
1685766279.3019667,316
1685766279.3189807,317
1685766279.3313565,321
1685766279.343374,325
1685766279.3594165,329
1685766279.372352,332
1685766279.384352,334
1685766279.4003515,337
1685766279.4123502,341
1685766279.42935,343
1685766279.4413557,343
1685766279.4533963,341
1685766279.470357,339
1685766279.4823573,338
1685766279.4943671,338
1685766279.5117466,336
1685766279.523477,333
1685766279.5357819,328
1685766279.552503,325
1685766279.5641048,323
1685766279.5809486,322
1685766279.5927894,320
1685766279.6060154,318
1685766279.6220222,314
1685766279.6344378,312
1685766279.6468577,312
1685766279.6633525,312
1685766279.675539,311
1685766279.6874313,309
1685766279.7043512,306
1685766279.716406,305
1685766279.7323308,305
1685766279.7459474,306
1685766279.7573714,305
1685766279.774049,303
1685766279.7859766,301
1685766279.7983158,301
1685766279.8146272,302
1685766279.8268394,302
1685766279.8393948,301
1685766279.8552265,298
1685766279.8681867,296
1685766279.8802288,296
1685766279.8966763,297
1685766279.9090354,299
1685766279.9249327,299
1685766279.9369411,299
1685766279.9496896,301
1685766279.9658887,305
1685766279.978954,308
1685766279.9904046,310
1685766280.0071893,311
1685766280.0194995,310
1685766280.031838,311
1685766280.047358,313
1685766280.0604644,312
1685766280.076899,311
1685766280.08887,310
1685766280.10137,306
1685766280.1174734,305
1685766280.129444,305
1685766280.142311,304
1685766280.158419,302
1685766280.1703813,299
1685766280.1829805,298
1685766280.1998966,298
1685766280.211849,300
1685766280.2240782,300
1685766280.2408266,299
1685766280.2523415,297
1685766280.2689192,297
1685766280.28099,299
1685766280.2931783,301
1685766280.3105354,301
1685766280.3221092,301
1685766280.3347464,299
1685766280.3507292,300
1685766280.3633592,303
1685766280.37551,305
1685766280.3921618,306
1685766280.4041686,305
1685766280.4209301,304
1685766280.4331439,306
1685766280.4451492,309
1685766280.4615896,310
1685766280.4740407,310
1685766280.4860039,308
1685766280.5030072,308
1685766280.5150075,309
1685766280.5271475,312
1685766280.5437381,313
1685766280.555513,312
1685766280.5718515,310
1685766280.5848346,309
1685766280.5971699,311
1685766280.6128335,313
1685766280.6250753,313
1685766280.6376603,312
1685766280.6535375,310
1685766280.6664765,310
1685766280.678474,312
1685766280.6944761,313
1685766280.7076733,313
1685766280.7195916,311
1685766280.7354708,309
1685766280.7485654,310
1685766280.7645335,313
1685766280.7766988,314
1685766280.7894824,313
1685766280.8054993,311
1685766280.8178463,310
1685766280.8308852,311
1685766280.8469565,313
1685766280.8589025,313
1685766280.870941,311
1685766280.887552,309
1685766280.8999949,309
1685766280.9157007,311
1685766280.9284363,312
1685766280.9404154,312
1685766280.9570384,310
1685766280.969958,308
1685766280.9815333,308
1685766280.9985461,310
1685766281.0106227,311
1685766281.022601,311
1685766281.0390615,309
1685766281.0515652,308
1685766281.063539,308
1685766281.079549,310
1685766281.092504,311
1685766281.1085036,310
1685766281.1205094,308
1685766281.133724,307
1685766281.149497,308
1685766281.1624959,310
1685766281.1745844,311
1685766281.1905036,310
1685766281.202721,308
1685766281.2155147,307
1685766281.231886,309
1685766281.243906,312
1685766281.2599528,311
1685766281.272905,311
1685766281.2848966,309
1685766281.3009756,309
1685766281.313889,311
1685766281.3258896,313
1685766281.3418863,313
1685766281.3548992,311
1685766281.366884,309
1685766281.3829446,310
1685766281.394884,313
1685766281.4117148,313
1685766281.4233093,313
1685766281.4365096,310
1685766281.4529383,309
1685766281.4651406,310
1685766281.4777827,312
1685766281.494235,313
1685766281.5065398,311
1685766281.518494,309
1685766281.5343292,308
1685766281.5472698,310
1685766281.5595508,312
1685766281.5755932,312
1685766281.5882788,310
1685766281.604274,308
1685766281.6169531,308
1685766281.628933,309
1685766281.6456003,311
1685766281.657803,310
1685766281.6701753,308
1685766281.686183,306
1685766281.698181,307
1685766281.7111666,309
1685766281.7270539,310
1685766281.7391672,309
1685766281.755969,307
1685766281.7679694,306
1685766281.77995,308
1685766281.7962215,309
1685766281.80958,310
1685766281.821869,309
1685766281.8379436,306
1685766281.8504252,306
1685766281.864435,308
1685766281.878449,310
1685766281.8909502,310
1685766281.9074125,308
1685766281.9189444,307
1685766281.9319565,306
1685766281.9479492,309
1685766281.9605384,311
1685766281.972536,311
1685766281.989526,309
1685766282.0015388,307
1685766282.0134144,308
1685766282.030396,310
1685766282.042949,311
1685766282.054943,310
1685766282.0712516,308
1685766282.084039,307
1685766282.1000855,308
1685766282.1120775,310
1685766282.1240788,311
1685766282.1410806,309
1685766282.1530802,307
1685766282.1650782,307
1685766282.1820807,309
1685766282.1941497,311
1685766282.2062008,311
1685766282.2230926,309
1685766282.2352698,308
1685766282.2512176,308
1685766282.2643101,310
1685766282.2755656,312
1685766282.2927291,311
1685766282.3049285,310
1685766282.3173745,308
1685766282.3335063,308
1685766282.3461802,311
1685766282.360173,311
1685766282.3741918,310
1685766282.386186,308
1685766282.3991811,306
1685766282.4153693,307
1685766282.427246,309
1685766282.4442892,310
1685766282.456289,308
1685766282.468291,306
1685766282.485262,306
1685766282.4979057,308
1685766282.509631,310
1685766282.5261953,310
1685766282.5384839,308
1685766282.5504944,306
1685766282.5668204,306
1685766282.5793629,308
1685766282.5948017,309
1685766282.60778,309
1685766282.6197932,307
1685766282.6366436,305
1685766282.6484468,306
1685766282.661393,308
1685766282.6774046,310
1685766282.6899714,309
1685766282.7024605,307
1685766282.718406,306
1685766282.7304049,308
1685766282.7469094,311
1685766282.7596047,312
1685766282.7718248,311
1685766282.7878702,309
1685766282.800327,309
1685766282.8129346,311
1685766282.8291688,313
1685766282.841663,313
1685766282.8538015,312
1685766282.86984,310
1685766282.8823943,311
1685766282.894064,314
1685766282.911204,315
1685766282.9233916,315
1685766282.9396706,314
1685766282.9512935,312
1685766282.9640062,312
1685766282.9809442,314
1685766282.992982,315
1685766283.004964,314
1685766283.021019,312
1685766283.034222,311
1685766283.046124,312
1685766283.0629485,313
1685766283.0744524,313
1685766283.0907469,312
1685766283.1037073,309
1685766283.1157064,309
1685766283.131693,311
1685766283.1448512,313
1685766283.1568792,314
1685766283.1731129,312
1685766283.185763,310
1685766283.1978803,311
1685766283.21415,313
1685766283.2261593,315
1685766283.2383246,314
1685766283.2553124,312
1685766283.2675338,311
1685766283.2834778,312
1685766283.2954688,315
1685766283.3084736,316
1685766283.3244529,315
1685766283.3370712,313
1685766283.3490677,311
1685766283.366073,313
1685766283.3780718,315
1685766283.3904483,315
1685766283.4063926,314
1685766283.4183984,311
1685766283.4345372,310
1685766283.4475362,312
1685766283.459535,313
1685766283.4757655,313
1685766283.4885433,311
1685766283.500529,309
1685766283.5165865,309
1685766283.5307431,310
1685766283.5415456,311
1685766283.557514,311
1685766283.570542,308
1685766283.5865223,307
1685766283.5984654,308
1685766283.6115127,310
1685766283.6274703,311
1685766283.6404698,310
1685766283.6524775,308
1685766283.6684647,307
1685766283.680472,309
1685766283.6935248,311
1685766283.7095175,311
1685766283.721537,310
1685766283.7344837,307
1685766283.7505758,307
1685766283.762534,309
1685766283.7795355,311
1685766283.791544,311
1685766283.8039758,309
1685766283.8202121,306
1685766283.8322418,307
1685766283.8443093,309
1685766283.8611822,310
1685766283.8731284,310
1685766283.8860638,308
1685766283.9022644,306
1685766283.9148905,307
1685766283.9306269,310
1685766283.9425817,311
1685766283.9551902,309
1685766283.971772,307
1685766283.9837577,306
1685766283.9964316,307
1685766284.0127103,309
1685766284.0251524,310
1685766284.0372083,308
1685766284.0538237,306
1685766284.066265,306
1685766284.0825462,307
1685766284.094813,309
1685766284.106405,309
1685766284.1236773,307
1685766284.1353943,305
1685766284.1481075,305
1685766284.1642907,307
1685766284.1764336,308
1685766284.1893086,307
1685766284.2051105,305
1685766284.2177794,303
1685766284.2303584,303
1685766284.2465281,306
1685766284.2586048,306
1685766284.2745275,305
1685766284.2873905,304
1685766284.2997143,303
1685766284.3154995,304
1685766284.32751,307
1685766284.340238,307
1685766284.3572805,306
1685766284.3692224,304
1685766284.3812783,304
1685766284.3976603,306
1685766284.4101388,309
1685766284.4257848,309
1685766284.4381702,307
1685766284.4507594,305
1685766284.4675105,306
1685766284.4794652,308
1685766284.4917138,310
1685766284.507965,309
1685766284.5213702,307
1685766284.5332618,305
1685766284.549112,306
1685766284.5621092,309
1685766284.5742564,309
1685766284.5902846,309
1685766284.602771,306
1685766284.6188278,305
1685766284.6307714,307
1685766284.6428297,309
1685766284.6597874,309
1685766284.671787,308
1685766284.6845253,306
1685766284.7008972,306
1685766284.712874,308
1685766284.7248232,310
1685766284.7421505,309
1685766284.7545226,308
1685766284.7704525,306
1685766284.7825139,307
1685766284.7954304,309
1685766284.8114612,311
1685766284.8237565,310
1685766284.8362134,308
1685766284.8527832,307
1685766284.8654463,308
1685766284.876769,310
1685766284.8929894,311
1685766284.9058437,310
1685766284.9220686,308
1685766284.934582,307
1685766284.946162,308
1685766284.9631743,310
1685766284.97496,311
1685766284.9869647,310
1685766285.0033696,308
1685766285.0164247,307
1685766285.028377,309
1685766285.045548,310
1685766285.057465,310
1685766285.0693636,308
1685766285.0857325,306
1685766285.0983593,306
1685766285.1144273,308
1685766285.1271672,310
1685766285.1394536,309
1685766285.1554892,307
1685766285.168004,305
1685766285.1805518,306
1685766285.196488,308
1685766285.2084844,309
1685766285.2204838,308
1685766285.237487,306
1685766285.2493649,306
1685766285.2653635,307
1685766285.2783656,310
1685766285.290363,311
1685766285.307362,309
1685766285.319359,307
1685766285.3313568,307
1685766285.3479002,309
1685766285.3603625,311
1685766285.3723636,311
1685766285.3882127,309
1685766285.4013288,307
1685766285.4136417,307
1685766285.4298913,309
1685766285.4418857,311
1685766285.457877,310
1685766285.4708755,308
1685766285.4828749,306
1685766285.4988747,307
1685766285.5118778,310
1685766285.5238783,311
1685766285.5403154,310
1685766285.5528781,308
1685766285.5644624,308
1685766285.581459,310
1685766285.5934591,312
1685766285.6094582,313
1685766285.6224594,312
1685766285.6344604,309
1685766285.651142,309
1685766285.6632507,311
1685766285.6752558,313
1685766285.6921432,313
1685766285.703749,311
1685766285.7167099,309
1685766285.7327487,309
1685766285.7447097,311
1685766285.7611794,313
1685766285.7740421,312
1685766285.786348,310
1685766285.8029475,309
1685766285.8152702,310
1685766285.8270123,312
1685766285.8439517,313
1685766285.8560867,312
1685766285.868011,309
1685766285.8839493,308
1685766285.8970966,309
1685766285.9090714,311
1685766285.9250865,312
1685766285.9380949,310
1685766285.9540737,308
1685766285.9660785,307
1685766285.9790797,309
1685766285.995227,311
1685766286.0070748,310
1685766286.019082,309
1685766286.036082,306
1685766286.048078,306
1685766286.0600886,309
1685766286.077091,310
1685766286.0890782,310
1685766286.1053965,307
1685766286.1177156,306
1685766286.1303966,307
1685766286.1463995,309
1685766286.158394,310
1685766286.171395,310
1685766286.1878464,308
1685766286.1994026,306
1685766286.2124438,308
1685766286.2284036,311
1685766286.2403903,311
1685766286.2536056,310
1685766286.2693896,308
1685766286.2815943,308
1685766286.30871,310
1685766286.3187103,312
1685766286.3234992,312
1685766286.3517106,310
1685766286.352713,308
1685766286.364926,309
1685766286.3798203,311
1685766286.391931,313
1685766286.409899,313
1685766286.4240272,311
1685766286.4328983,309
1685766286.4510255,310
1685766286.4619026,313
1685766286.4738972,314
1685766286.4909146,313
1685766286.5406325,311
1685766286.5416288,310
1685766286.5426297,311
1685766286.5796213,314
1685766286.5796213,314
1685766286.5796213,313
1685766286.5846207,311
1685766286.60085,311
1685766286.6135452,314
1685766286.626859,315
1685766286.642269,315
1685766286.6543503,314
1685766286.666366,312
1685766286.6827013,313
1685766286.6952822,315
1685766286.7071066,316
1685766286.724107,315
1685766286.7360625,313
1685766286.7485225,312
1685766286.764652,312
1685766286.7767086,315
1685766286.7930698,316
1685766286.806167,315
1685766286.8181815,313
1685766286.8342347,312
1685766286.8464575,314
1685766286.8587315,316
1685766286.8754227,316
1685766286.8874466,315
1685766286.8994265,313
1685766286.9164248,313
1685766286.9284225,315
1685766286.9444237,317
1685766286.9574788,317
1685766286.9694738,315
1685766286.9856832,313
1685766286.9984682,313
1685766287.0106716,315
1685766287.027096,316
1685766287.038802,316
1685766287.0516434,313
1685766287.0675335,311
1685766287.0795352,312
1685766287.0925348,314
1685766287.1085355,315
1685766287.1205359,314
1685766287.137532,311
1685766287.1494398,310
1685766287.161515,312
1685766287.1787002,314
1685766287.1910825,314
1685766287.202705,313
1685766287.219737,311
1685766287.2317414,311
1685766287.2440593,313
1685766287.2606947,315
1685766287.2727263,315
1685766287.2887237,313
1685766287.3009927,311
1685766287.3139677,311
1685766287.3298175,314
1685766287.342391,315
1685766287.3549087,314
1685766287.3710284,311
1685766287.3828783,309
1685766287.3951654,310
1685766287.412168,312
1685766287.424564,313
1685766287.4405856,311
1685766287.452996,309
1685766287.4656496,308
1685766287.481286,309
1685766287.4938912,311
1685766287.5061438,311
1685766287.5231242,309
1685766287.5353332,307
1685766287.546989,306
1685766287.564016,308
1685766287.576283,310
1685766287.5881147,310
1685766287.605098,308
1685766287.617165,306
1685766287.6333,306
1685766287.64596,308
1685766287.6579516,309
1685766287.6741755,308
1685766287.6869543,306
1685766287.6989622,305
1685766287.716209,306
1685766287.7273264,308
1685766287.7399282,310
1685766287.756551,309
1685766287.7682352,307
1685766287.784508,306
1685766287.7974408,308
1685766287.8093207,310
1685766287.8263028,311
1685766287.8382757,309
1685766287.85085,307
1685766287.8668492,307
1685766287.8788493,309
1685766287.8918731,311
1685766287.9079201,311
1685766287.9199533,309
1685766287.9328573,307
1685766287.948992,307
1685766287.9610815,310
1685766287.977136,311
1685766287.9900672,310
1685766288.0016885,308
1685766288.0189369,306
1685766288.0308492,307
1685766288.043445,310
1685766288.0591924,310
1685766288.0712907,310
1685766288.083871,307
1685766288.1005309,306
1685766288.1125236,308
1685766288.1284778,310
1685766288.1416128,310
1685766288.1536298,308
1685766288.1696832,306
1685766288.1826198,306
1685766288.194615,308
1685766288.2110307,309
1685766288.2226233,309
1685766288.235617,308
1685766288.25202,305
1685766288.2638032,306
1685766288.2798076,308
1685766288.2931657,310
1685766288.3050702,309
1685766288.3217494,307
1685766288.3337398,305
1685766288.345851,306
1685766288.3628378,308
1685766288.3748887,309
1685766288.38693,308
1685766288.4033167,306
1685766288.416151,305
1685766288.4281464,307
1685766288.444454,309
1685766288.4561465,309
1685766288.473134,308
1685766288.4851427,306
1685766288.4971461,305
1685766288.5144715,308
1685766288.5261493,310
1685766288.538146,310
1685766288.5551434,308
1685766288.566849,306
1685766288.5796692,307
1685766288.5954123,309
1685766288.608426,311
1685766288.6246998,310
1685766288.6366265,308
1685766288.649567,307
1685766288.6654494,308
1685766288.677621,310
1685766288.6904116,311
1685766288.7069063,310
1685766288.7184832,308
1685766288.731502,307
1685766288.7473788,309
1685766288.7596183,311
1685766288.776078,311
1685766288.7887142,310
1685766288.800448,307
1685766288.8168912,307
1685766288.8299491,309
1685766288.8423212,311
1685766288.8583174,311
1685766288.8705964,310
1685766288.8824074,308
1685766288.899425,308
1685766288.911552,311
1685766288.9241061,312
1685766288.9397066,312
1685766288.952504,310
1685766288.9683855,309
1685766288.9811723,310
1685766288.9931629,313
1685766289.0099387,314
1685766289.0219052,313
1685766289.0345614,311
1685766289.051067,310
1685766289.0628483,312
1685766289.0754747,314
1685766289.0916462,314
1685766289.1042142,313
1685766289.120352,311
1685766289.1324646,311
1685766289.1446223,313
1685766289.1606152,314
1685766289.1735423,314
1685766289.1856651,312
1685766289.2024562,310
1685766289.2154205,311
1685766289.2263503,313
1685766289.243669,314
1685766289.2559023,313
1685766289.2678459,311
1685766289.284144,310
1685766289.2963238,311
1685766289.3125596,314
1685766289.324623,314
1685766289.3373463,313
1685766289.3539655,311
1685766289.366085,310
1685766289.3783562,312
1685766289.394746,314
1685766289.4071205,315
1685766289.4190512,313
1685766289.4361157,311
1685766289.4476357,311
1685766289.4644115,313
1685766289.476494,315
1685766289.4890888,314
1685766289.5049038,312
1685766289.517682,310
1685766289.5302517,311
1685766289.5459564,313
1685766289.5587885,315
1685766289.5709703,313
1685766289.5874197,311
1685766289.5995014,309
1685766289.615554,310
1685766289.6283019,313
1685766289.6403055,314
1685766289.6566,312
1685766289.669323,310
1685766289.6809962,309
1685766289.6982276,310
1685766289.7104094,313
1685766289.7223165,312
1685766289.7383735,310
1685766289.7510972,308
1685766289.7627974,307
1685766289.7796786,309
1685766289.7921567,310
1685766289.8087683,310
1685766289.8214014,307
1685766289.8327837,305
1685766289.8495834,305
1685766289.8615756,308
1685766289.8743217,309
1685766289.890144,308
1685766289.9031763,306
1685766289.9152772,304
1685766289.9314709,306
1685766289.9435556,308
1685766289.959988,309
1685766289.9725473,308
1685766289.9845695,305
1685766290.0010765,305
1685766290.0133793,307
1685766290.0251262,309
1685766290.0422547,309
1685766290.0543625,308
1685766290.0664139,306
1685766290.08319,306
1685766290.095217,308
1685766290.1113503,310
1685766290.1239436,310
1685766290.1362731,308
1685766290.152406,306
1685766290.1644926,307
1685766290.1771672,309
1685766290.19325,311
1685766290.2055585,310
1685766290.2174056,308
1685766290.2340708,306
1685766290.246124,308
1685766290.2591245,310
1685766290.275109,310
1685766290.2871292,309
1685766290.3031104,306
1685766290.316126,306
1685766290.328176,308
1685766290.344272,309
1685766290.3571644,310
1685766290.3696558,308
1685766290.3855758,306
1685766290.3983223,306
1685766290.410768,309
1685766290.4265716,310
1685766290.43897,310
1685766290.4555173,308
1685766290.467543,306
1685766290.480496,307
1685766290.4961867,310
1685766290.508179,311
1685766290.5211525,310
1685766290.5377054,308
1685766290.5491467,307
1685766290.562147,309
1685766290.5782075,311
1685766290.5902066,312
1685766290.6031454,310
1685766290.6192107,308
1685766290.631145,307
1685766290.6481583,309
1685766290.660217,312
1685766290.672607,312
1685766290.6886303,310
1685766290.7012956,308
1685766290.7132404,307
1685766290.729295,309
1685766290.7421594,311
1685766290.7541614,310
1685766290.7701643,308
1685766290.7831542,307
1685766290.7991478,307
1685766290.811143,310
1685766290.8241138,311
1685766290.8401272,310
1685766290.852549,308
1685766290.8650806,306
1685766290.881109,307
1685766290.893108,309
1685766290.9057057,310
1685766290.922282,308
1685766290.9342775,306
1685766290.9505937,305
1685766290.9627612,307
1685766290.975267,309
1685766290.9912884,309
1685766291.0035622,308
1685766291.0165324,306
1685766291.0327656,306
1685766291.0451097,309
1685766291.0571616,311
1685766291.0741606,311
1685766291.086194,309
1685766291.098206,307
1685766291.115077,308
1685766291.1270971,311
1685766291.1434815,312
1685766291.1554923,311
1685766291.1680698,309
1685766291.1842895,307
1685766291.1965244,309
1685766291.2094474,311
1685766291.225123,312
1685766291.237963,311
1685766291.2503774,308
1685766291.2665606,307
1685766291.2786684,310
1685766291.2952657,312
1685766291.3079972,312
1685766291.3195856,311
1685766291.3363316,308
1685766291.3484993,308
1685766291.3605578,310
1685766291.376489,312
1685766291.3894958,312
1685766291.4025958,309
1685766291.4177964,307
1685766291.4304233,308
1685766291.4430652,310
1685766291.45855,312
1685766291.4711816,311
1685766291.4877877,308
1685766291.5003152,306
1685766291.5125318,308
1685766291.528541,310
1685766291.5405188,311
1685766291.5534086,309
1685766291.5700626,306
1685766291.5816827,305
1685766291.5943158,308
1685766291.6105351,311
1685766291.6230147,311
1685766291.6387582,309
1685766291.651484,306
1685766291.6635723,306
1685766291.6804173,309
1685766291.6924875,311
1685766291.7049608,310
1685766291.721475,308
1685766291.733474,306
1685766291.7461438,307
1685766291.7618394,310
1685766291.7745414,311
1685766291.7912529,311
1685766291.8033035,308
1685766291.8153346,307
1685766291.8320317,309
1685766291.8436599,312
1685766291.8562715,312
1685766291.8723872,311
1685766291.8852317,308
1685766291.8973308,307
1685766291.9131608,309
1685766291.926098,312
1685766291.9381568,312
1685766291.9540944,309
1685766291.967116,307
1685766291.9832954,306
1685766291.9952753,310
1685766292.0082767,311
1685766292.024458,311
1685766292.0362706,309
1685766292.0484357,306
1685766292.0652757,307
1685766292.0774012,310
1685766292.0897734,311
1685766292.1058185,310
1685766292.1177683,307
1685766292.1338232,305
1685766292.1468031,307
1685766292.1587577,309
1685766292.1757586,310
1685766292.1874554,309
1685766292.2005193,306
1685766292.2160733,306
1685766292.2286565,308
1685766292.2410386,310
1685766292.2577782,310
1685766292.2698066,308
1685766292.2822492,306
1685766292.2982953,306
1685766292.3112946,309
1685766292.3270543,311
1685766292.339487,310
1685766292.3519914,308
1685766292.3680618,306
1685766292.3805187,308
1685766292.3926356,310
1685766292.409604,311
1685766292.4214654,310
1685766292.434298,308
1685766292.4504788,307
1685766292.4625251,308
1685766292.4789248,310
1685766292.4910476,311
1685766292.5031812,310
1685766292.5195248,307
1685766292.532446,307
1685766292.544803,309
1685766292.5611844,311
1685766292.5728228,311
1685766292.5850086,309
1685766292.6011558,307
1685766292.6142044,307
1685766292.6297286,310
1685766292.6427557,312
1685766292.6545641,312
1685766292.671566,310
1685766292.6833746,309
1685766292.6954312,310
1685766292.7121794,312
1685766292.7246008,314
1685766292.7371342,313
1685766292.7533267,311
1685766292.765683,310
1685766292.7774842,311
1685766292.794286,313
1685766292.806523,314
1685766292.823063,312
1685766292.8350782,310
1685766292.8473983,309
1685766292.864082,311
1685766292.876074,313
1685766292.8880086,313
1685766292.9050026,311
1685766292.916995,309
1685766292.929013,309
1685766292.9460502,311
1685766292.958011,313
1685766292.9740005,313
1685766292.9865031,311
1685766292.9990058,310
1685766293.0150561,311
1685766293.0270574,313
1685766293.0400057,314
1685766293.0562565,313
1685766293.069089,311
1685766293.081022,310
1685766293.0970764,311
1685766293.1100252,313
1685766293.1226084,313
1685766293.1381605,312
1685766293.1508362,309
1685766293.1671848,308
1685766293.1797101,310
1685766293.1918976,311
1685766293.2078772,310
1685766293.2210796,309
1685766293.232546,307
1685766293.249108,306
1685766293.2608478,308
1685766293.272957,309
1685766293.2893796,309
1685766293.3014364,307
1685766293.3185437,305
1685766293.3312058,306
1685766293.3426864,308
1685766293.3597686,310
1685766293.3715315,309
1685766293.3835294,307
1685766293.400678,306
1685766293.4124746,308
1685766293.4244895,310
1685766293.4414868,311
1685766293.4535084,310
1685766293.469528,308
1685766293.4826958,308
1685766293.495096,310
1685766293.5106828,311
1685766293.5237424,311
1685766293.5356803,310
1685766293.5516963,308
1685766293.5637422,308
1685766293.5766916,310
1685766293.5931895,312
1685766293.6051931,311
1685766293.617255,310
1685766293.6341963,308
1685766293.646199,309
1685766293.6622212,310
1685766293.6752114,312
1685766293.6870522,311
1685766293.7030394,308
1685766293.7160912,307
1685766293.7280517,309
1685766293.7440927,311
1685766293.757045,311
1685766293.7691607,311
1685766293.7852125,309
1685766293.7981787,309
1685766293.8141506,311
1685766293.8265615,313
1685766293.8381631,313
1685766293.8549554,311
1685766293.867498,309
1685766293.8809285,310
1685766293.8965845,312
1685766293.9080522,313
1685766293.9205942,313
1685766293.9370635,311
1685766293.9495933,310
1685766293.9617558,310
1685766293.97775,312
1685766293.9906929,314
1685766294.0068765,312
1685766294.0191703,310
1685766294.031136,309
1685766294.0474586,310
1685766294.0603333,312
1685766294.0724514,312
1685766294.08834,310
1685766294.100282,308
1685766294.1132843,308
1685766294.1293359,310
1685766294.1892793,312
1685766294.190284,312
1685766294.1912804,310
1685766294.191723,309
1685766294.1992826,309
1685766294.2113245,311
1685766294.223327,312
1685766294.2402823,311
1685766294.2523367,310
1685766294.2642903,308
1685766294.2812965,308
1685766294.2932928,311
1685766294.3093023,312
1685766294.3222826,311
1685766294.334348,309
1685766294.3502831,308
1685766294.3622925,309
1685766294.3753786,311
1685766294.3912907,312
1685766294.403377,311
1685766294.4163818,309
1685766294.4327273,308
1685766294.4442909,310
1685766294.4572833,312
1685766294.4734564,312
1685766294.4858546,310
1685766294.5014555,308
1685766294.5144522,309
1685766294.5265224,311
1685766294.5429888,312
1685766294.5549867,312
1685766294.5672257,310
1685766294.584168,308
1685766294.595556,309
1685766294.6085851,311
1685766294.6247883,312
1685766294.6369398,311
1685766294.6529205,309
1685766294.6656039,308
1685766294.6776745,309
1685766294.6942093,311
1685766294.706372,312
1685766294.7193718,310
1685766294.7353926,308
1685766294.7479143,307
1685766294.7603786,309
1685766294.776703,310
1685766294.7892847,310
1685766294.8042498,308
1685766294.8172941,306
1685766294.829713,306
1685766294.846043,308
1685766294.8589802,309
1685766294.8709805,309
1685766294.886984,307
1685766294.8989854,306
1685766294.9119773,307
1685766294.927987,309
1685766294.9399729,310
1685766294.9529855,309
1685766294.968987,308
1685766294.9819741,307
1685766294.9969902,308
1685766295.0100772,310
1685766295.02308,311
1685766295.0390759,310
1685766295.0510776,308
1685766295.0630744,308
1685766295.080079,309
1685766295.092079,311
1685766295.1045237,311
1685766295.1206753,309
1685766295.1325264,307
1685766295.1485252,307
1685766295.1615224,310
1685766295.1735237,311
1685766295.1905293,311
1685766295.2025309,309
1685766295.2151437,307
1685766295.2312393,309
1685766295.2431335,311
1685766295.2553782,312
1685766295.2721355,311
1685766295.2843916,310
1685766295.2961366,309
1685766295.3130763,311
1685766295.325078,313
1685766295.341516,313
1685766295.3540773,311
1685766295.366079,309
1685766295.3822937,309
1685766295.3950775,311
1685766295.4072678,312
1685766295.4232728,312
1685766295.43534,310
1685766295.459263,308
1685766295.4642682,308
1685766295.480268,311
1685766295.4932659,312
1685766295.5070395,312
1685766295.517351,310
1685766295.5343518,308
1685766295.5463529,309
1685766295.5596688,311
1685766295.5913613,312
1685766295.5913613,311
1685766295.6010478,309
1685766295.6163156,308
1685766295.6282394,310
1685766295.6445656,312
1685766295.656655,312
1685766295.6686554,311
1685766295.6857035,309
1685766295.697962,309
1685766295.7100463,310
1685766295.7267106,312
1685766295.7385914,312
1685766295.7511659,310
1685766295.7669053,308
1685766295.7799094,308
1685766295.7919147,310
1685766295.8089225,311
1685766295.8208752,311
1685766295.836944,308
1685766295.8498929,307
1685766295.8619769,308
1685766295.8780608,310
1685766295.890575,311
1685766295.9024372,310
1685766295.9195702,307
1685766295.932005,307
1685766295.9443057,308
1685766295.9604537,310
1685766295.9725053,310
1685766295.9888318,309
1685766296.0012217,308
1685766296.01383,307
1685766296.029834,309
1685766296.0418582,311
1685766296.0538356,311
1685766296.0708394,309
1685766296.082843,307
1685766296.094842,307
1685766296.1118305,309
1685766296.1238449,310
1685766296.1398294,309
1685766296.152837,307
1685766296.1648412,305
1685766296.181967,306
1685766296.1938462,309
1685766296.2058237,310
1685766296.2228305,309
1685766296.2348297,307
1685766296.246829,306
1685766296.2638297,307
1685766296.2758307,309
1685766296.2880642,310
1685766296.3044598,308
1685766296.3162985,306
1685766296.3323002,306
1685766296.3456213,308
1685766296.3573067,310
1685766296.3732953,310
1685766296.3862982,308
1685766296.3982975,307
1685766296.4153004,307
1685766296.4272988,310
1685766296.439295,311
1685766296.4554532,311
1685766296.4682937,309
1685766296.4843113,308
1685766296.4962966,309
1685766296.5094244,311
1685766296.5258875,311
1685766296.5374181,310
1685766296.5504162,307
1685766296.5664122,306
1685766296.5784228,308
1685766296.5913906,309
1685766296.60766,309
1685766296.6200464,307
1685766296.6319914,305
1685766296.6480668,304
1685766296.660647,306
1685766296.6770012,307
1685766296.6896634,306
1685766296.7018034,305
1685766296.7176194,303
1685766296.7306354,303
1685766296.7429266,306
1685766296.7586157,307
1685766296.7706273,307
1685766296.7838597,305
1685766296.799642,304
1685766296.8116212,306
1685766296.8285189,309
1685766296.840508,310
1685766296.8534622,309
1685766296.87,307
1685766296.8823426,307
1685766296.8943512,309
1685766296.9100304,311
1685766296.9230282,311
1685766296.9353766,309
1685766296.9509325,307
1685766296.9639347,308
1685766296.9801302,310
1685766296.9928255,311
1685766297.0049276,311
1685766297.021185,309
1685766297.0335634,308
1685766297.04556,308
1685766297.0621004,311
1685766297.0745165,312
1685766297.0868733,311
1685766297.1028795,309
1685766297.1154215,308
1685766297.1278696,309
1685766297.1442828,311
1685766297.1564484,312
1685766297.1726806,311
1685766297.1846228,309
1685766297.1976333,308
1685766297.214153,310
1685766297.2253897,313
1685766297.2383747,313
1685766297.2544599,312
1685766297.2672315,310
1685766297.2794824,311
1685766297.2954805,313
1685766297.3077073,315
1685766297.3234804,314
1685766297.3364909,313
1685766297.3484905,310
1685766297.365153,311
1685766297.3772106,314
1685766297.3900373,315
1685766297.4064748,314
1685766297.4187207,312
1685766297.430888,310
1685766297.4472883,312
1685766297.4599156,314
1685766297.4751291,314
1685766297.4882112,313
1685766297.500415,311
1685766297.5172136,310
1685766297.5284877,312
1685766297.5415406,313
1685766297.5580897,313
1685766297.5702808,312
1685766297.5825183,309
1685766297.599571,309
1685766297.610755,311
1685766297.6228633,313
1685766297.6395438,313
1685766297.6516125,311
1685766297.668542,309
1685766297.6810708,310
1685766297.6924286,312
1685766297.7089083,314
1685766297.721555,313
1685766297.734113,311
1685766297.7504249,309
1685766297.7624652,311
1685766297.7750673,313
1685766297.7913954,313
1685766297.8034391,312
1685766297.8194387,310
1685766297.8321872,309
1685766297.8449085,311
1685766297.8611403,313
1685766297.8730757,313
1685766297.8860903,311
1685766297.9019732,308
1685766297.9143007,308
1685766297.9265287,310
1685766297.9431958,310
1685766297.954896,309
1685766297.9674883,306
1685766297.9835196,303
1685766297.996152,303
1685766298.0122244,304
1685766298.0242481,304
1685766298.036624,302
1685766298.0536094,299
1685766298.0654874,296
1685766298.0777252,296
1685766298.0944808,297
1685766298.1065462,296
1685766298.1185884,294
1685766298.1349075,290
1685766298.1478715,289
1685766298.16384,290
1685766298.1764743,291
1685766298.1881456,291
1685766298.204709,289
1685766298.217135,286
1685766298.2298126,285
1685766298.2458534,287
1685766298.2583244,288
1685766298.2704158,287
1685766298.2868757,286
1685766298.2991831,284
1685766298.3117204,286
1685766298.3278768,289
1685766298.3398688,290
1685766298.3559701,290
1685766298.368822,290
1685766298.3804803,290
1685766298.3975096,293
1685766298.4097981,296
1685766298.4224517,298
1685766298.4381864,299
1685766298.4510899,298
1685766298.4632475,299
1685766298.4792216,302
1685766298.491366,305
1685766298.5081518,307
1685766298.5203838,307
1685766298.53293,306
1685766298.5490046,307
1685766298.5608923,310
1685766298.5738535,313
1685766298.5897443,313
1685766298.602307,313
1685766298.614697,312
1685766298.6310005,314
1685766298.6435158,317
1685766298.6595457,318
1685766298.6715968,318
1685766298.6834667,317
1685766298.700945,316
1685766298.7129314,318
1685766298.7252245,321
1685766298.741888,323
1685766298.7536132,322
1685766298.7656276,321
1685766298.782502,321
1685766298.7951453,324
1685766298.8073268,326
1685766298.8229427,327
1685766298.8358805,327
1685766298.8522046,326
1685766298.8643765,327
1685766298.8764875,330
1685766298.8933043,332
1685766298.9046667,332
1685766298.9176207,331
1685766298.9336145,330
1685766298.945726,331
1685766298.9586077,333
1685766298.9746077,334
1685766298.9876056,333
1685766299.0036027,331
1685766299.015969,330
1685766299.0276089,331
1685766299.044605,333
1685766299.0567093,334
1685766299.0689082,333
1685766299.0856059,330
1685766299.0980508,329
1685766299.1096942,331
1685766299.1266944,332
1685766299.1388938,331
1685766299.154696,329
1685766299.1670463,326
1685766299.1796975,326
1685766299.1956956,328
1685766299.208036,329
1685766299.2211256,327
1685766299.2370956,325
1685766299.2487113,323
1685766299.261723,324
1685766299.2777207,326
1685766299.2897115,326
1685766299.3027859,324
1685766299.3188426,322
1685766299.3311224,320
1685766299.3475378,321
1685766299.3600132,323
1685766299.3720162,322
1685766299.388118,321
1685766299.4011211,318
1685766299.4127479,317
1685766299.4288826,318
1685766299.442225,320
1685766299.4538865,319
1685766299.4704874,317
1685766299.4822557,314
1685766299.4988391,314
1685766299.510825,317
1685766299.5238388,318
1685766299.5398386,317
1685766299.551827,315
1685766299.5648866,313
1685766299.5811305,314
1685766299.5928223,316
1685766299.6058252,317
1685766299.62209,315
1685766299.63467,313
1685766299.6463819,312
1685766299.662803,314
1685766299.6753283,316
1685766299.691328,317
1685766299.7033687,316
1685766299.7161226,314
1685766299.7317302,313
1685766299.7446795,315
1685766299.75679,317
1685766299.7729266,316
1685766299.7859938,315
1685766299.7981935,312
1685766299.813872,313
1685766299.8260972,315
1685766299.8431034,316
1685766299.8551083,315
1685766299.867311,313
1685766299.8841548,312
1685766299.8961036,313
1685766299.9081526,315
1685766299.9251006,315
1685766299.9371579,314
1685766299.949543,312
1685766299.966144,311
1685766299.9783442,312
1685766299.9941387,314
1685766300.0061357,314
1685766300.0191853,312
1685766300.0351567,309
1685766300.048156,309
1685766300.060353,311
1685766300.076325,313
1685766300.0881999,312
1685766300.1011562,310
1685766300.117286,307
1685766300.1291635,307
1685766300.1421585,310
1685766300.1581676,311
1685766300.170845,309
1685766300.1871634,307
1685766300.1991575,304
1685766300.2114055,305
1685766300.2281554,307
1685766300.2402277,307
1685766300.2521653,306
1685766300.2692146,303
1685766300.281325,302
1685766300.2931938,304
1685766300.3101556,305
1685766300.3221574,305
1685766300.3384118,303
1685766300.351249,301
1685766300.363199,300
1685766300.3796291,302
1685766300.391822,303
1685766300.4042354,303
1685766300.4198112,301
1685766300.432085,299
1685766300.4451497,299
1685766300.4616342,302
1685766300.4740114,303
1685766300.4860268,303
1685766300.502098,301
1685766300.514929,300
1685766300.5309665,301
1685766300.543637,304
1685766300.555315,304
1685766300.5722642,303
1685766300.5844452,301
1685766300.5965111,301
1685766300.6129348,303
1685766300.6250103,305
1685766300.6379642,305
1685766300.6540446,304
1685766300.6663103,302
1685766300.6823556,302
1685766300.695314,304
1685766300.7068093,306
1685766300.7237844,305
1685766300.7361674,303
1685766300.7481627,301
1685766300.7641737,302
1685766300.7771757,304
1685766300.7894006,305
1685766300.8057961,304
1685766300.817684,302
1685766300.8338609,301
1685766300.8460534,303
1685766300.8590198,305
1685766300.87502,306
1685766300.8874378,305
1685766300.9000201,302
1685766300.916058,302
1685766300.9280581,304
1685766300.941002,306
1685766300.9570045,306
1685766300.9690044,305
1685766300.9820604,303
1685766300.9980018,303
1685766301.0100574,305
1685766301.027023,306
1685766301.0390785,306
1685766301.0514188,304
1685766301.0677214,302
1685766301.080139,303
1685766301.0921764,305
1685766301.108195,306
1685766301.1211355,306
1685766301.1331842,303
1685766301.1491933,302
1685766301.1621864,304
1685766301.1781223,306
1685766301.1901336,307
1685766301.2021766,305
1685766301.2191668,303
1685766301.231175,303
1685766301.243183,305
1685766301.2601655,307
1685766301.2721837,307
1685766301.2841737,306
1685766301.3008463,304
1685766301.312888,304
1685766301.3289397,306
1685766301.3422227,308
1685766301.3539174,306
1685766301.3709233,299
1685766301.3828804,291
1685766301.3949215,290
1685766301.4118834,294
1685766301.423883,298
1685766301.4358828,300
1685766301.4528837,300
1685766301.4648826,300
1685766301.477497,303
1685766301.493544,306
1685766301.505499,307
1685766301.5225387,306
1685766301.5345075,303
1685766301.546515,302
1685766301.5635052,305
1685766301.5752192,307
1685766301.5882335,308
1685766301.6042228,305
1685766301.6162217,301
1685766301.6291645,302
1685766301.6452231,305
1685766301.6572294,307
1685766301.6735666,306
1685766301.6861708,304
1685766301.698222,303
1685766301.7142308,304
1685766301.7271695,310
1685766301.7392247,314
1685766301.7552054,315
1685766301.768209,314
1685766301.7802238,315
1685766301.7961957,319
1685766301.8091953,324
1685766301.821203,326
1685766301.8371973,326
1685766301.8501632,324
1685766301.8661952,323
1685766301.8782423,325
1685766301.8905869,326
1685766301.9065962,326
1685766301.9198542,323
1685766301.9318984,321
1685766301.9478998,322
1685766301.96089,326
1685766301.972887,327
1685766301.9888506,326
1685766302.0018427,322
1685766302.0178452,316
1685766302.029897,311
1685766302.042892,307
1685766302.0588465,301
1685766302.0708961,293
1685766302.0828986,285
1685766302.099844,279
1685766302.1118584,278
1685766302.123855,278
1685766302.1408904,277
1685766302.15305,273
1685766302.1695044,268
1685766302.1818976,267
1685766302.1938574,270
1685766302.2099078,274
1685766302.222898,276
1685766302.2349112,276
1685766302.2509534,275
1685766302.2638762,277
1685766302.2758813,282
1685766302.2918406,286
1685766302.3048432,288
1685766302.317,288
1685766302.3328407,290
1685766302.3458426,295
1685766302.361843,301
1685766302.3738418,305
1685766302.3868415,306
1685766302.402843,305
1685766302.4150953,306
1685766302.427094,310
1685766302.4440854,315
1685766302.4560506,316
1685766302.4680912,315
1685766302.4850547,311
1685766302.4970987,311
1685766302.5130546,313
1685766302.5260515,315
1685766302.5380635,314
1685766302.5540998,311
1685766302.5670583,307
1685766302.5790646,307
1685766302.5951002,310
1685766302.608063,312
1685766302.620022,312
1685766302.6364176,309
1685766302.6484299,307
1685766302.661422,308
1685766302.677226,312
1685766302.6894305,313
1685766302.7066464,312
1685766302.7182379,309
1685766302.7308302,307
1685766302.7463055,310
1685766302.759498,312
1685766302.772021,312
1685766302.7882895,311
1685766302.8006558,309
1685766302.812269,308
1685766302.8289094,312
1685766302.8416083,315
1685766302.8576622,316
1685766302.8698058,315
1685766302.8819635,313
1685766302.8987978,313
1685766302.911108,317
1685766302.9236572,318
1685766302.9397602,317
1685766302.9523308,315
1685766302.9645905,313
1685766302.9805603,315
1685766302.992558,317
1685766303.0086133,319
1685766303.0215697,318
1685766303.0336173,315
1685766303.050559,313
1685766303.0625577,315
1685766303.0746236,318
1685766303.0905638,318
1685766303.1025932,316
1685766303.1151707,312
1685766303.1322148,312
1685766303.1441507,314
1685766303.156161,316
1685766303.1728141,316
1685766303.1850595,313
1685766303.2010972,309
1685766303.2142122,308
1685766303.2262099,310
1685766303.2425537,310
1685766303.2545652,309
1685766303.2665617,306
1685766303.2835422,305
1685766303.2955468,307
1685766303.3075662,311
1685766303.3237894,312
1685766303.336761,311
1685766303.3529518,308
1685766303.3649583,308
1685766303.3779,310
1685766303.393905,312
1685766303.406218,313
1685766303.418045,310
1685766303.4347095,308
1685766303.4475155,308
1685766303.4597492,311
1685766303.4761076,313
1685766303.4879801,313
1685766303.5039797,311
1685766303.5170176,309
1685766303.5290196,310
1685766303.5452132,313
1685766303.5575032,316
1685766303.5703282,315
1685766303.5866277,313
1685766303.598612,311
1685766303.610674,313
1685766303.6275709,316
1685766303.6396108,318
1685766303.6516361,317
1685766303.668682,315
1685766303.6806006,314
1685766303.6965742,317
1685766303.709568,320
1685766303.721846,321
1685766303.7380862,319
1685766303.7515054,317
1685766303.7628348,318
1685766303.779603,321
1685766303.7916877,324
1685766303.8035305,325
1685766303.819662,323
1685766303.8326483,321
1685766303.848657,322
1685766303.861514,326
1685766303.8739865,328
1685766303.8901434,327
1685766303.9020875,325
1685766303.9141784,323
1685766303.9304225,325
1685766303.9434054,329
1685766303.9554071,329
1685766303.9716387,328
1685766303.983664,325
1685766303.996865,324
1685766304.0124586,326
1685766304.025219,329
1685766304.0416586,330
1685766304.053799,328
1685766304.0670083,326
1685766304.0820487,325
1685766304.0951807,328
1685766304.1071315,330
1685766304.1234257,329
1685766304.1353257,326
1685766304.1482024,323
1685766304.1646128,324
1685766304.1765513,327
1685766304.1928918,328
1685766304.205112,327
1685766304.2176435,324
1685766304.2341657,321
1685766304.2467449,323
1685766304.258631,325
1685766304.2752767,326
1685766304.2873287,324
1685766304.2993453,321
1685766304.3156507,320
1685766304.3286464,322
1685766304.344065,324
1685766304.3565648,324
1685766304.3686414,321
1685766304.3856287,317
1685766304.3976254,317
1685766304.4096406,319
1685766304.4266443,320
1685766304.438549,319
1685766304.450783,316
1685766304.4673088,313
1685766304.4797273,313
1685766304.4922771,315
1685766304.5085347,316
1685766304.5210412,314
1685766304.5367007,311
1685766304.5496159,309
1685766304.5615487,310
1685766304.5778658,313
1685766304.590477,313
1685766304.6025183,310
1685766304.6189642,307
1685766304.6312242,306
1685766304.6439214,308
1685766304.6605082,310
1685766304.672451,310
1685766304.6888316,308
1685766304.700571,305
1685766304.712949,306
1685766304.7296488,308
1685766304.7413077,311
1685766304.754342,311
1685766304.7704635,308
1685766304.7828364,306
1685766304.794991,307
1685766304.8112407,310
1685766304.8234162,311
1685766304.8364174,309
1685766304.8526418,306
1685766304.8642354,304
1685766304.881282,306
1685766304.8938498,309
1685766304.9050972,309
1685766304.922005,307
1685766304.9338193,304
1685766304.9470057,303
1685766304.9632473,305
1685766304.9755347,307
1685766304.9877949,306
1685766305.004159,304
1685766305.016485,301
1685766305.032482,300
1685766305.0444868,303
1685766305.0574808,304
1685766305.073577,304
1685766305.0857203,302
1685766305.0980988,301
1685766305.1141582,302
1685766305.1276393,304
1685766305.1393752,304
1685766305.155632,303
1685766305.1671484,302
1685766305.1840386,300
1685766305.1963408,302
1685766305.2087607,304
1685766305.2247646,304
1685766305.2377105,303
1685766305.249615,301
1685766305.266473,301
1685766305.2787924,303
1685766305.2906852,304
1685766305.3071494,304
1685766305.3190632,303
1685766305.3316586,301
1685766305.347646,301
1685766305.360629,302
1685766305.3771682,303
1685766305.3885248,302
1685766305.4015222,301
1685766305.417267,299
1685766305.4302218,299
1685766305.4424653,301
1685766305.4590282,302
1685766305.470478,301
1685766305.4834776,299
1685766305.4994736,298
1685766305.511533,301
1685766305.528447,303
1685766305.5403452,304
1685766305.5526965,303
1685766305.5694556,303
1685766305.581629,304
1685766305.5942316,306
1685766305.6108499,308
1685766305.62273,309
1685766305.6349492,308
1685766305.6507037,307
1685766305.6638238,308
1685766305.6753807,310
1685766305.692312,311
1685766305.7043111,311
1685766305.7202258,309
1685766305.7331736,308
1685766305.745403,309
1685766305.7619636,311
1685766305.7741988,312
1685766305.7862353,311
1685766305.8027847,310
1685766305.8150823,309
1685766305.8270903,311
1685766305.8430908,312
1685766305.8560827,313
1685766305.8724678,313
1685766305.884564,311
1685766305.897098,311
1685766305.913457,313
1685766305.926013,315
1685766305.9379933,316
1685766305.95447,315
1685766305.9666717,314
1685766305.9786777,314
1685766305.99545,316
1685766306.0073392,318
1685766306.022937,317
1685766306.0360935,316
1685766306.048629,315
1685766306.0646117,316
1685766306.0766697,317
1685766306.0896132,318
1685766306.1058376,317
1685766306.1180453,315
1685766306.1304998,314
1685766306.1462274,315
1685766306.1586685,316
1685766306.17159,316
1685766306.1876664,314
1685766306.2002041,313
1685766306.2166207,313
1685766306.2288094,316
1685766306.2411063,318
1685766306.2571342,319
1685766306.2697444,318
1685766306.281958,317
1685766306.2980573,317
1685766306.3110123,319
1685766306.323055,320
1685766306.339375,319
1685766306.3514886,317
1685766306.366987,315
1685766306.380322,315
1685766306.3923893,316
1685766306.409463,316
1685766306.4214532,314
1685766306.4331245,312
1685766306.450019,310
1685766306.462947,311
1685766306.474802,312
1685766306.4908762,311
1685766306.5035186,309
1685766306.515688,306
1685766306.531211,305
1685766306.5442111,305
1685766306.5599432,305
1685766306.5727363,304
1685766306.584906,301
1685766306.6014178,298
1685766306.6130571,298
1685766306.6262295,299
1685766306.6425483,299
1685766306.6542351,298
1685766306.6665707,296
1685766306.683268,294
1685766306.695554,295
1685766306.712265,296
1685766306.7238693,297
1685766306.7369058,296
1685766306.7525535,294
1685766306.765561,294
1685766306.7779615,295
1685766306.7942705,297
1685766306.806325,297
1685766306.8183637,296
1685766306.8350842,294
1685766306.8465924,295
1685766306.8625436,297
1685766306.8762434,298
1685766306.8875427,298
1685766306.90406,296
1685766306.91699,295
1685766306.9290257,296
1685766306.945816,298
1685766306.9578977,299
1685766306.97017,298
1685766306.9866486,296
1685766306.9982915,296
1685766307.0112672,297
1685766307.0268927,299
1685766307.039525,299
1685766307.056083,299
1685766307.0680943,297
1685766307.0807037,297
1685766307.0968714,299
1685766307.1088848,300
1685766307.1208797,300
1685766307.1376753,299
1685766307.1504529,298
1685766307.162532,298
1685766307.178806,300
1685766307.1911848,301
1685766307.207172,301
1685766307.2196136,300
1685766307.2315464,299
1685766307.248604,300
1685766307.2604704,302
1685766307.2725127,303
1685766307.2899294,302
1685766307.3021894,300
1685766307.3136141,299
1685766307.3304095,301
1685766307.3424878,302
1685766307.3551621,303
1685766307.3718047,301
1685766307.3839602,300
1685766307.3999739,299
1685766307.411744,301
1685766307.4250946,302
1685766307.4405065,302
1685766307.4527647,301
1685766307.4658768,300
1685766307.482033,301
1685766307.4944746,303
1685766307.506611,304
1685766307.5231738,304
1685766307.5353465,303
1685766307.5516515,302
1685766307.5636976,304
1685766307.576616,306
1685766307.592843,306
1685766307.6052477,305
1685766307.6173518,303
1685766307.6339464,302
1685766307.6457205,304
1685766307.6575756,305
1685766307.6749358,306
1685766307.6868632,305
1685766307.6992333,303
1685766307.7151666,303
1685766307.7279077,305
1685766307.7442107,306
1685766307.7566886,306
1685766307.7688363,305
1685766307.7848778,304
1685766307.797825,304
1685766307.8101182,306
1685766307.825813,307
1685766307.8378208,307
1685766307.8508158,305
1685766307.8664894,304
1685766307.8789027,305
1685766307.8955593,307
1685766307.9078193,308
1685766307.9206564,307
1685766307.936643,305
1685766307.9486518,305
1685766307.960654,307
1685766307.97765,308
1685766307.9901576,309
1685766308.0019255,308
1685766308.0185971,306
1685766308.0307398,306
1685766308.0470295,308
1685766308.0596213,309
1685766308.0721102,309
1685766308.088437,307
1685766308.1005971,306
1685766308.112994,306
1685766308.1285858,308
1685766308.1418767,310
1685766308.15398,309
1685766308.169915,307
1685766308.1819315,306
1685766308.1949315,308
1685766308.2109153,310
1685766308.222931,310
1685766308.2389853,309
1685766308.251882,308
1685766308.2647424,307
1685766308.2807066,309
1685766308.2932181,311
1685766308.3055217,311
1685766308.3219876,310
1685766308.3340764,309
1685766308.3458648,309
1685766308.362815,312
1685766308.3752663,314
1685766308.3907893,313
1685766308.4031184,313
1685766308.4161348,311
1685766308.432088,311
1685766308.4442604,313
1685766308.4579902,314
1685766308.473646,314
1685766308.4856973,312
1685766308.4982119,311
1685766308.5136538,312
1685766308.5266423,314
1685766308.5389822,314
1685766308.5544813,313
1685766308.5681026,312
1685766308.5831003,311
1685766308.5958338,313
1685766308.6086555,315
1685766308.625185,315
1685766308.6372464,314
1685766308.6492314,313
1685766308.6658669,313
1685766308.6778605,315
1685766308.6904843,316
1685766308.706823,316
1685766308.71855,315
1685766308.7353954,313
1685766308.747944,314
1685766308.760252,316
1685766308.7755275,317
1685766308.7886488,316
1685766308.801017,314
1685766308.8169358,314
1685766308.829688,315
1685766308.8421226,316
1685766308.8579288,317
1685766308.8708222,315
1685766308.8868144,313
1685766308.8987582,313
1685766308.911491,315
1685766308.9281635,316
1685766308.9403067,315
1685766308.9524298,314
1685766308.9690845,312
1685766308.981167,312
1685766308.993214,314
1685766309.0101864,314
1685766309.0221248,314
1685766309.034575,312
1685766309.0509942,311
1685766309.0628958,311
1685766309.0789144,313
1685766309.0921345,314
1685766309.103937,313
1685766309.1205344,312
1685766309.1324174,311
1685766309.1443257,313
1685766309.1610413,315
1685766309.173737,315
1685766309.1858234,314
1685766309.2018752,313
1685766309.2149243,313
1685766309.231218,315
1685766309.243289,316
1685766309.2554734,316
1685766309.2720263,315
1685766309.2841606,313
1685766309.2965353,314
1685766309.313119,316
1685766309.3251855,317
1685766309.3369427,316
1685766309.3541412,314
1685766309.3664408,312
1685766309.3818252,313
1685766309.394593,315
1685766309.4067695,315
1685766309.423604,313
1685766309.4356043,311
1685766309.447672,310
1685766309.4641466,311
1685766309.4770765,313
1685766309.4885752,313
1685766309.5055177,311
1685766309.5178113,310
1685766309.5293968,310
1685766309.546282,312
1685766309.5589252,314
1685766309.5751615,314
1685766309.5871298,313
1685766309.5996492,312
1685766309.6158597,313
1685766309.6284466,315
1685766309.6398592,316
1685766309.6568885,315
1685766309.6693292,312
1685766309.6815495,309
1685766309.6975708,308
1685766309.7098649,310
1685766309.7257993,312
1685766309.738802,310
1685766309.7513723,308
1685766309.7669146,307
1685766309.779864,309
1685766309.791942,312
1685766309.808624,313
1685766309.8204706,312
1685766309.8324733,310
1685766309.849591,310
1685766309.86213,313
1685766309.8741338,315
1685766309.8905227,315
1685766309.9025087,314
1685766309.919168,313
1685766309.9316707,314
1685766309.9436777,316
1685766309.9603114,317
1685766309.9724445,316
1685766309.9844882,314
1685766310.0012293,313
1685766310.013431,314
1685766310.0249436,315
1685766310.0420463,316
1685766310.0545204,314
1685766310.0704732,312
1685766310.0824728,312
1685766310.094471,313
1685766310.1119268,314
1685766310.1240335,314
1685766310.1361527,313
1685766310.1524763,311
1685766310.1653202,311
1685766310.1773443,312
1685766310.193542,313
1685766310.2060022,313
1685766310.221544,311
1685766310.2347307,309
1685766310.247067,310
1685766310.2628524,311
1685766310.2756,312
1685766310.2874393,311
1685766310.3033676,310
1685766310.3163788,309
1685766310.3288198,311
1685766310.3452709,312
1685766310.357174,312
1685766310.3699176,311
1685766310.3859143,310
1685766310.3985987,309
1685766310.414597,311
1685766310.4265924,313
1685766310.4390206,313
1685766310.4559436,312
1685766310.4681797,310
1685766310.4796734,310
1685766310.4969697,312
1685766310.5086281,313
1685766310.5212677,312
1685766310.5379913,311
1685766310.5500278,309
1685766310.565599,310
1685766310.5788352,312
1685766310.5908341,313
1685766310.6073298,312
1685766310.6198158,310
1685766310.631989,309
1685766310.6475127,310
1685766310.6605532,312
1685766310.6730325,312
1685766310.6888866,311
1685766310.7018766,310
1685766310.7179358,309
1685766310.7296085,311
1685766310.7425513,312
1685766310.758544,312
1685766310.7715487,311
1685766310.7831652,309
1685766310.7990396,309
1685766310.8116896,311
1685766310.8237922,311
1685766310.8410776,311
1685766310.8529074,309
1685766310.864997,308
1685766310.8812308,309
1685766310.8940914,311
1685766310.9097502,311
1685766310.9226694,311
1685766310.9350233,309
1685766310.951366,308
1685766310.963923,309
1685766310.9755282,310
1685766310.9922664,310
1685766311.0049136,309
1685766311.01647,307
1685766311.0325668,307
1685766311.0458188,309
1685766311.061845,310
1685766311.0739486,310
1685766311.0866084,308
1685766311.1027815,307
1685766311.1152077,308
1685766311.1275342,310
1685766311.1434584,311
1685766311.1557596,311
1685766311.1683946,309
1685766311.1849852,308
1685766311.1969378,309
1685766311.2133656,311
1685766311.225879,311
1685766311.2376525,310
1685766311.253703,308
1685766311.2667003,307
1685766311.2786279,309
1685766311.2954278,310
1685766311.3074703,310
1685766311.3195062,309
1685766311.3363307,307
1685766311.3481932,306
1685766311.361061,308
1685766311.377357,308
1685766311.388917,308
1685766311.405851,306
1685766311.4178987,305
1685766311.431241,305
1685766311.4467819,307
1685766311.4598255,308
1685766311.4715667,308
1685766311.4873157,307
1685766311.4993641,306
1685766311.5123,307
1685766311.5286849,309
1685766311.5404797,310
1685766311.557316,309
1685766311.5695667,307
1685766311.581559,307
1685766311.5984788,308
1685766311.6114643,310
1685766311.6228075,311
1685766311.639396,309
1685766311.6514378,307
1685766311.6642942,307
1685766311.6804807,309
1685766311.6925476,311
1685766311.7047946,311
1685766311.7207966,309
1685766311.7338254,308
1685766311.7500916,308
1685766311.7616453,310
1685766311.774288,311
1685766311.7910452,311
1685766311.8032606,309
1685766311.8153043,308
1685766311.8316414,309
1685766311.844177,311
1685766311.8563182,311
1685766311.87289,310
1685766311.8846505,308
1685766311.901593,308
1685766311.9133735,310
1685766311.9258587,311
1685766311.942551,311
1685766311.9550962,310
1685766311.9671583,308
1685766311.9833257,308
1685766311.9953678,309
1685766312.0081797,310
1685766312.0241418,310
1685766312.036815,308
1685766312.0527215,307
1685766312.0650241,307
1685766312.077059,309
1685766312.0937996,310
1685766312.1065836,309
1685766312.1192532,308
1685766312.1345644,307
1685766312.1466067,308
1685766312.159637,310
1685766312.1762116,311
1685766312.1882255,310
1685766312.200759,308
1685766312.2163837,308
1685766312.2293682,309
1685766312.245979,311
1685766312.2579658,311
1685766312.270134,310
1685766312.2868104,309
1685766312.298045,309
1685766312.3110528,311
1685766312.327622,312
1685766312.3394394,312
1685766312.3516934,311
1685766312.3686783,310
1685766312.380147,310
1685766312.3969119,312
1685766312.4090033,312
1685766312.4218483,311
1685766312.4378664,309
1685766312.4498436,309
1685766312.4628544,310
1685766312.4791954,310
1685766312.491439,311
1685766312.5039036,309
1685766312.5194685,307
1685766312.5319543,306
1685766312.5450685,307
1685766312.5610614,308
1685766312.5732274,308
1685766312.5893614,306
1685766312.6015377,304
1685766312.614386,303
1685766312.6300466,304
1685766312.6431503,305
1685766312.6548133,304
1685766312.6715329,302
1685766312.6835382,301
1685766312.6961558,301
1685766312.7123728,303
1685766312.7243817,304
1685766312.7408986,302
1685766312.7531865,301
1685766312.7653058,300
1685766312.7815647,302
1685766312.7944205,303
1685766312.8067777,303
1685766312.8230565,302
1685766312.8353126,300
1685766312.8473015,300
1685766312.8643472,301
1685766312.8765376,302
1685766312.8920977,302
1685766312.905021,301
1685766312.9173,299
1685766312.933064,300
1685766312.9456666,302
1685766312.9583454,303
1685766312.974961,302
1685766312.9870148,301
1685766312.9997892,300
1685766313.0158732,301
1685766313.0275204,304
1685766313.0398622,305
1685766313.05689,304
1685766313.068533,304
1685766313.0851402,304
1685766313.0972657,305
1685766313.1097147,308
1685766313.1257398,309
1685766313.1377366,309
1685766313.1507506,307
1685766313.1668096,308
1685766313.17875,311
1685766313.1917498,312
1685766313.2082276,312
1685766313.22005,311
1685766313.2367356,310
1685766313.2490597,311
1685766313.2611978,314
1685766313.2777665,315
1685766313.2899384,315
1685766313.3019912,314
1685766313.3180642,313
1685766313.3311503,314
1685766313.3429253,316
1685766313.359758,317
1685766313.371723,316
1685766313.3878536,315
1685766313.399988,315
1685766313.4127946,316
1685766313.4294465,318
1685766313.4412875,318
1685766313.4540777,317
1685766313.4702494,316
1685766313.4822907,316
1685766313.4942868,318
1685766313.5112617,319
1685766313.5237527,319
1685766313.53557,318
1685766313.552018,317
1685766313.5639617,317
1685766313.579921,319
1685766313.5926592,320
1685766313.6046562,320
1685766313.622116,318
1685766313.6340559,317
1685766313.6465373,318
1685766313.6627014,320
1685766313.675119,320
1685766313.686783,319
1685766313.7037191,318
1685766313.7159538,318
1685766313.7322018,319
1685766313.7446337,320
1685766313.7565331,320
1685766313.7730112,319
1685766313.7866526,317
1685766313.7978702,318
1685766313.8136997,319
1685766313.8266132,320
1685766313.8388402,319
1685766313.8555007,318
1685766313.8676171,316
1685766313.8796184,317
1685766313.8963182,318
1685766313.9084058,319
1685766313.9249713,318
1685766313.93715,317
1685766313.9493003,316
1685766313.9655955,317
1685766313.9778006,319
1685766313.9901617,319
1685766314.007153,318
1685766314.0190883,316
1685766314.0310264,316
1685766314.0479667,317
1685766314.059932,318
1685766314.076545,318
1685766314.0889947,317
1685766314.1008449,316
1685766314.1171446,316
1685766314.129124,317
1685766314.1421437,318
1685766314.1577752,318
1685766314.1709723,316
1685766314.1831796,315
1685766314.1991742,315
1685766314.2114408,317
1685766314.2269115,317
1685766314.2402618,316
1685766314.2520082,314
1685766314.2685032,314
1685766314.2814717,315
1685766314.2935448,316
1685766314.3098228,317
1685766314.3221421,315
1685766314.334454,313
1685766314.350912,313
1685766314.3633025,314
1685766314.3755574,315
1685766314.3913052,314
1685766314.4041653,313
1685766314.4207172,311
1685766314.4327154,311
1685766314.4449856,313
1685766314.4615562,313
1685766314.4735982,313
1685766314.4861393,311
1685766314.5016623,309
1685766314.5145814,309
1685766314.5267346,311
1685766314.5433903,311
1685766314.555772,310
1685766314.571725,308
1685766314.584418,307
1685766314.5969584,308
1685766314.613339,310
1685766314.6248403,310
1685766314.6378798,309
1685766314.6539912,307
1685766314.6663196,307
1685766314.677974,308
1685766314.6949124,310
1685766314.7069652,309
1685766314.722825,308
1685766314.7358303,307
1685766314.7479188,307
1685766314.7643857,309
1685766314.7771368,310
1685766314.7885845,309
1685766314.8057284,307
1685766314.8177493,306
1685766314.8297973,306
1685766314.8457675,308
1685766314.858907,309
1685766314.8711646,308
1685766314.887514,306
1685766314.8992836,305
1685766314.915916,306
1685766314.9283724,308
1685766314.9404078,308
1685766314.9564557,307
1685766314.9694211,305
1685766314.9814692,306
1685766314.9980214,307
1685766315.010417,309
1685766315.022592,309
1685766315.0391505,308
1685766315.0509083,306
1685766315.0667107,307
1685766315.079378,309
1685766315.0923553,310
1685766315.1089091,310
1685766315.1208687,309
1685766315.1328282,307
1685766315.1498497,308
1685766315.161713,310
1685766315.1738603,310
1685766315.190827,309
1685766315.2025828,307
1685766315.2151318,306
1685766315.2309065,307
1685766315.2439666,309
1685766315.260166,308
1685766315.2723038,307
1685766315.2847965,306
1685766315.3008943,306
1685766315.313073,307
1685766315.3252559,308
1685766315.3419118,308
1685766315.3545651,306
1685766315.366834,305
1685766315.3827136,306
1685766315.3955286,308
1685766315.4111497,308
1685766315.4240434,308
1685766315.4358678,306
1685766315.4520822,305
1685766315.4645996,306
1685766315.476574,307
1685766315.4939027,308
1685766315.506106,307
1685766315.5178459,305
1685766315.5343547,305
1685766315.5462863,307
1685766315.5629172,308
1685766315.575637,308
1685766315.5880706,307
1685766315.6036878,305
1685766315.6161053,306
1685766315.6281116,308
1685766315.6450984,309
1685766315.6573803,308
1685766315.66967,307
1685766315.6861339,306
1685766315.6980586,307
1685766315.7100604,308
1685766315.7266421,309
1685766315.7387478,308
1685766315.7549562,307
1685766315.7679815,306
1685766315.7803063,307
1685766315.796435,309
1685766315.8082979,309
1685766315.8212612,308
1685766315.8379526,306
1685766315.8500047,306
1685766315.8620005,307
1685766315.8781757,309
1685766315.891179,308
1685766315.9067316,307
1685766315.9188316,305
1685766315.9320483,306
1685766315.9482517,307
1685766315.9608047,308
1685766315.9724455,308
1685766315.9885635,307
1685766316.0016115,306
1685766316.0137575,306
1685766316.0294988,308
1685766316.0425477,309
1685766316.055027,309
1685766316.0708342,307
1685766316.0834103,306
1685766316.0996053,308
1685766316.1116123,310
1685766316.1242714,310
1685766316.1408646,309
1685766316.1529186,307
1685766316.1653502,307
1685766316.181329,309
1685766316.1936445,310
1685766316.2066038,310
1685766316.222848,309
1685766316.2352207,308
1685766316.2513742,308
1685766316.2636979,310
1685766316.2756324,311
1685766316.2924128,310
1685766316.3048038,309
1685766316.316845,308
1685766316.333159,309
1685766316.344987,310
1685766316.357729,311
1685766316.3745086,310
1685766316.3859935,308
1685766316.4020014,307
1685766316.4151402,309
1685766316.4273026,310
1685766316.4434907,310
1685766316.4562333,309
1685766316.4684355,307
1685766316.48487,307
1685766316.4967864,309
1685766316.5095267,310
1685766316.5257163,310
1685766316.5377693,308
1685766316.550581,307
1685766316.566561,307
1685766316.57894,310
1685766316.5949166,311
1685766316.6076229,310
1685766316.6203249,309
1685766316.6356552,308
1685766316.6488376,309
1685766316.6611066,311
1685766316.6777747,312
1685766316.689906,311
1685766316.7018325,309
1685766316.7177675,309
1685766316.730801,310
1685766316.746049,312
1685766316.7590482,312
1685766316.7714117,311
1685766316.7872648,309
1685766316.7999043,309
1685766316.812399,310
1685766316.828812,311
1685766316.8408008,311
1685766316.853311,310
1685766316.8699286,308
1685766316.8821795,309
1685766316.8940089,311
1685766316.9112988,312
1685766316.923064,311
1685766316.9393733,309
1685766316.951362,309
1685766316.9641352,310
1685766316.980343,311
1685766316.9920177,311
1685766317.004748,310
1685766317.0215306,308
1685766317.0335665,308
1685766317.0455844,309
1685766317.0619662,311
1685766317.0746248,311
1685766317.0912237,310
1685766317.1025696,308
1685766317.1159458,308
1685766317.1318944,309
1685766317.1441398,310
1685766317.156249,310
1685766317.1729925,308
1685766317.1851642,307
1685766317.197571,307
1685766317.2130964,309
1685766317.2260957,310
1685766317.242232,309
1685766317.2541428,308
1685766317.2670023,307
1685766317.2836668,308
1685766317.2956522,310
1685766317.308171,310
1685766317.324953,309
1685766317.3372433,308
1685766317.348863,308
1685766317.3652294,309
1685766317.3779423,311
1685766317.3896203,311
1685766317.4058542,310
1685766317.4188507,308
1685766317.4349842,309
1685766317.4473765,311
1685766317.4595299,312
1685766317.4763656,311
1685766317.4880054,310
1685766317.500884,308
1685766317.5170126,309
1685766317.529185,311
1685766317.5418422,312
1685766317.5575616,310
1685766317.5694907,309
1685766317.586411,308
1685766317.5991633,309
1685766317.6105397,311
1685766317.6270902,311
1685766317.640043,310
1685766317.652218,308
1685766317.668531,307
1685766317.6805267,309
1685766317.6926713,310
1685766317.7100623,310
1685766317.7210433,308
1685766317.7377746,307
1685766317.7505252,307
1685766317.7627158,309
1685766317.7792017,310
1685766317.7907994,310
1685766317.803854,308
1685766317.8197496,307
1685766317.83241,308
1685766317.8439796,310
1685766317.8607433,311
1685766317.8729403,310
1685766317.8856745,308
1685766317.9017282,308
1685766317.9143722,309
1685766317.9299319,311
1685766317.9428673,311
1685766317.955181,310
1685766317.97089,308
1685766317.9840786,308
1685766317.9959383,310
1685766318.0127287,311
1685766318.0244527,311
1685766318.036867,309
1685766318.0528793,308
1685766318.0658305,308
1685766318.081834,310
1685766318.0944068,311
1685766318.1066628,311
1685766318.1232128,309
1685766318.1353471,308
1685766318.14739,309
1685766318.1641314,311
1685766318.1764426,312
1685766318.188158,311
1685766318.2051103,309
1685766318.2173347,308
1685766318.2291503,310
1685766318.245431,312
1685766318.2579045,312
1685766318.2745702,310
1685766318.2871766,309
1685766318.2990682,309
1685766318.3159978,310
1685766318.328046,312
1685766318.340279,311
1685766318.3560476,310
1685766318.369029,308
1685766318.3810456,309
1685766318.3970482,311
1685766318.4100275,312
1685766318.4255848,311
1685766318.4378142,309
1685766318.4509435,308
1685766318.46737,309
1685766318.4796786,310
1685766318.4926686,311
1685766318.5080137,310
1685766318.520597,308
1685766318.5322554,307
1685766318.5492039,309
1685766318.561355,311
1685766318.577623,311
1685766318.5896032,310
1685766318.602481,308
1685766318.6184993,308
1685766318.631121,310
1685766318.6431906,311
1685766318.6592422,311
1685766318.6722238,309
1685766318.6839285,307
1685766318.7000833,308
1685766318.7131364,310
1685766318.7246974,311
1685766318.7417164,310
1685766318.7542093,309
1685766318.7699275,308
1685766318.7819178,309
1685766318.7949204,311
1685766318.8114963,311
1685766318.8230817,310
1685766318.835689,308
1685766318.8519888,308
1685766318.8641374,309
1685766318.8763654,310
1685766318.8933213,310
1685766318.9053037,309
1685766318.9216573,307
1685766318.9339662,308
1685766318.946044,310
1685766318.9622698,311
1685766318.9750264,310
1685766318.9872594,309
1685766319.0039723,307
1685766319.0160322,308
1685766319.0280297,310
1685766319.0449522,310
1685766319.057197,309
1685766319.0819416,307
1685766319.084953,307
1685766319.0979478,308
1685766319.113953,309
1685766319.1260412,310
1685766319.1386812,309
1685766319.1547933,307
1685766319.1677415,307
1685766319.179743,308
1685766319.1957421,310
1685766319.2083735,310
1685766319.2212286,308
1685766319.2372963,307
1685766319.2494752,307
1685766319.265845,309
1685766319.2784846,310
1685766319.2901232,310
1685766319.30635,308
1685766319.3186927,307
1685766319.3309968,308
1685766319.3477235,310
1685766319.359722,311
1685766319.3717241,310
1685766319.3886793,308
1685766319.4007225,307
1685766319.417047,308
1685766319.429665,310
1685766319.4424129,311
1685766319.4584744,309
1685766319.4714153,308
1685766319.483044,307
1685766319.4989855,309
1685766319.5110183,311
1685766319.5239778,310
1685766319.5402915,309
1685766319.552029,308
1685766319.564969,308
1685766319.5812328,310
1685766319.5930297,311
1685766319.6100464,310
1685766319.6219833,309
1685766319.6343083,307
1685766319.6509697,308
1685766319.6631465,310
1685766319.6759706,310
1685766319.6913729,309
1685766319.7040944,307
1685766319.7162402,307
1685766319.7324688,308
1685766319.7445252,309
1685766319.760463,310
1685766319.7738907,308
1685766319.785552,307
1685766319.802542,306
1685766319.8147318,308
1685766319.8265245,309
1685766319.8428981,308
1685766319.8558333,307
1685766319.8681865,306
1685766319.8838258,307
1685766319.8968852,310
1685766319.908834,311
1685766319.9251332,311
1685766319.9368787,311
1685766319.9538176,311
1685766319.9664745,314
1685766319.978815,318
1685766319.9948716,321
1685766320.0071561,322
1685766320.0188186,323
1685766320.035172,326
1685766320.0482793,330
1685766320.0602198,335
1685766320.0762048,338
1685766320.0892751,342
1685766320.1052618,346
1685766320.1172013,352
1685766320.1302645,359
1685766320.1466148,365
1685766320.158648,368
1685766320.1708803,368
1685766320.1875293,365
1685766320.199532,361
1685766320.2115703,355
1685766320.2282739,345
1685766320.2403204,333
1685766320.256257,319
1685766320.269334,306
1685766320.2817624,297
1685766320.2973363,289
1685766320.3107824,283
1685766320.3223488,277
1685766320.3393497,273
1685766320.3513439,272
1685766320.363349,273
1685766320.3795526,276
1685766320.3922727,278
1685766320.4042928,278
1685766320.4202733,278
1685766320.4332798,280
1685766320.4496353,284
1685766320.4615564,287
1685766320.4743521,287
1685766320.490338,286
1685766320.50256,286
1685766320.5153484,286
1685766320.5312839,288
1685766320.5440218,290
1685766320.5563512,292
1685766320.5722852,291
1685766320.5842862,294
1685766320.600339,302
