timestamps,emg_signal
1686016522.1564713,314
1686016522.1720483,315
1686016522.185148,316
1686016522.1974235,315
1686016522.213935,313
1686016522.2262015,313
1686016522.2383518,314
1686016522.2550805,315
1686016522.2668798,315
1686016522.278885,313
1686016522.2961123,312
1686016522.3082054,312
1686016522.320244,313
1686016522.3369973,314
1686016522.3490608,313
1686016522.3652706,312
1686016522.377554,311
1686016522.3895605,311
1686016522.406268,313
1686016522.4181428,313
1686016522.4311159,313
1686016522.4474146,311
1686016522.459584,311
1686016522.4715414,311
1686016522.4875674,312
1686016522.5000565,313
1686016522.516623,311
1686016522.529329,310
1686016522.541511,309
1686016522.557607,310
1686016522.570165,311
1686016522.5822546,311
1686016522.5981991,309
1686016522.6118703,307
1686016522.6228635,307
1686016522.6391227,308
1686016522.65212,309
1686016522.668161,308
1686016522.6804154,306
1686016522.692662,305
1686016522.709724,304
1686016522.7214744,306
1686016522.733436,306
1686016522.7505293,305
1686016522.762798,304
1686016522.7743452,303
1686016522.7910783,304
1686016522.8039384,305
1686016522.8157754,305
1686016522.8325393,304
1686016522.8445203,302
1686016522.8607936,303
1686016522.8727384,304
1686016522.8856988,305
1686016522.901467,306
1686016522.9133968,305
1686016522.9259725,303
1686016522.9429717,304
1686016522.9551146,305
1686016522.9669657,306
1686016522.983474,306
1686016522.9960308,304
1686016523.0120394,303
1686016523.0240455,303
1686016523.0370436,305
1686016523.0531006,305
1686016523.0653362,305
1686016523.0782185,303
1686016523.0941708,303
1686016523.1061516,304
1686016523.1189253,305
1686016523.135241,305
1686016523.14726,304
1686016523.1601605,303
1686016523.1760995,304
1686016523.1883073,306
1686016523.2048373,309
1686016523.2168996,309
1686016523.2299118,308
1686016523.2462373,308
1686016523.258066,309
1686016523.270873,311
1686016523.2869914,312
1686016523.2991214,312
1686016523.311455,311
1686016523.3278303,310
1686016523.3399255,312
1686016523.3559601,313
1686016523.3685946,315
1686016523.3809633,314
1686016523.3976302,312
1686016523.409832,312
1686016523.4218268,314
1686016523.437851,315
1686016523.4508474,316
1686016523.4628391,315
1686016523.4791853,313
1686016523.491205,313
1686016523.5076978,315
1686016523.520459,317
1686016523.5327895,316
1686016523.5487995,315
1686016523.560802,314
1686016523.5737941,314
1686016523.5897915,316
1686016523.6019332,317
1686016523.613866,317
1686016523.6309645,315
1686016523.643344,315
1686016523.6555483,316
1686016523.6724455,318
1686016523.6842055,319
1686016523.7004738,318
1686016523.7125099,317
1686016523.7244792,317
1686016523.7414746,319
1686016523.753487,320
1686016523.7660706,321
1686016523.782719,319
1686016523.7948961,319
1686016523.8068295,318
1686016523.822854,320
1686016523.8355844,321
1686016523.8522503,321
1686016523.8641744,320
1686016523.8768458,319
1686016523.8932667,320
1686016523.9055424,322
1686016523.9171755,323
1686016523.9342248,322
1686016523.946358,321
1686016523.9588335,320
1686016523.9748762,320
1686016523.9873116,322
1686016523.9992871,322
1686016524.0159986,321
1686016524.0280037,320
1686016524.0444186,319
1686016524.0570617,320
1686016524.0688763,322
1686016524.0852296,322
1686016524.0974555,320
1686016524.1102238,319
1686016524.1262321,319
1686016524.1382403,321
1686016524.1512299,323
1686016524.167231,322
1686016524.1792338,321
1686016524.1956055,320
1686016524.2076283,321
1686016524.220217,322
1686016524.236455,322
1686016524.2494013,321
1686016524.261408,320
1686016524.2784102,319
1686016524.2904117,320
1686016524.302409,321
1686016524.3190534,322
1686016524.3311205,321
1686016524.3478756,320
1686016524.3597674,319
1686016524.3718135,321
1686016524.388449,322
1686016524.400461,322
1686016524.41337,320
1686016524.429159,319
1686016524.442011,319
1686016524.4543276,321
1686016524.4705536,322
1686016524.482825,321
1686016524.4948218,320
1686016524.5111918,319
1686016524.524079,320
1686016524.5400784,322
1686016524.552129,323
1686016524.5641296,322
1686016524.5811503,320
1686016524.5931487,320
1686016524.6051407,321
1686016524.622288,322
1686016524.633913,322
1686016524.6469245,321
1686016524.6632762,319
1686016524.6757562,319
1686016524.6915333,319
1686016524.7044013,320
1686016524.7163446,320
1686016524.7322774,317
1686016524.7452826,316
1686016524.757286,316
1686016524.7732835,317
1686016524.785283,317
1686016524.7978857,316
1686016524.8149307,313
1686016524.8267038,312
1686016524.8390784,312
1686016524.8559153,312
1686016524.8681068,313
1686016524.8841321,312
1686016524.8966022,310
1686016524.9082086,310
1686016524.9252536,312
1686016524.9370456,314
1686016524.9500446,315
1686016524.966495,315
1686016524.9788554,316
1686016524.9903054,318
1686016525.0073152,321
1686016525.0198457,324
1686016525.035952,325
1686016525.0474565,325
1686016525.0606809,324
1686016525.077212,324
1686016525.0885072,326
1686016525.1011455,326
1686016525.1173124,327
1686016525.1300921,326
1686016525.1425452,325
1686016525.1582265,325
1686016525.1707249,324
1686016525.1877658,322
1686016525.1996822,319
1686016525.2126198,315
1686016525.2282627,312
1686016525.2402716,310
1686016525.2527068,309
1686016525.2694294,306
1686016525.2814853,301
1686016525.2936525,291
1686016525.3104243,280
1686016525.3228269,274
1686016525.334882,271
1686016525.3505661,266
1686016525.3635807,271
1686016525.3796616,280
1686016525.3915384,288
1686016525.4037285,296
1686016525.4207425,302
1686016525.432837,305
1686016525.4447312,307
1686016525.461991,308
1686016525.4739795,310
1686016525.48637,312
1686016525.5029523,314
1686016525.514994,313
1686016525.5311542,312
1686016525.5437622,312
1686016525.5562303,312
1686016525.5726588,313
1686016525.5850666,313
1686016525.5972242,312
1686016525.6130927,310
1686016525.6258008,310
1686016525.6376925,311
1686016525.6538298,312
1686016525.6666732,312
1686016525.678404,310
1686016525.695456,309
1686016525.7074442,308
1686016525.7242246,307
1686016525.7366183,306
1686016525.748747,304
1686016525.764854,301
1686016525.777334,299
1686016525.789727,298
1686016525.8063595,299
1686016525.818084,300
1686016525.8301322,300
1686016525.8465528,299
1686016525.8591447,301
1686016525.875125,303
1686016525.8880734,306
1686016525.9003315,307
1686016525.916519,307
1686016525.9288092,307
1686016525.9408314,309
1686016525.9571588,311
1686016525.9699097,313
1686016525.98193,313
1686016525.997843,313
1686016526.0111127,313
1686016526.0267527,313
1686016526.0397842,315
1686016526.0513656,316
1686016526.0681126,316
1686016526.0804667,316
1686016526.092601,315
1686016526.1090941,316
1686016526.1215472,318
1686016526.1332293,318
1686016526.1492317,318
1686016526.1634483,317
1686016526.17445,316
1686016526.1912274,317
1686016526.2031937,319
1686016526.2196107,318
1686016526.2311628,318
1686016526.2441409,317
1686016526.2606115,316
1686016526.2721887,317
1686016526.285194,318
1686016526.3014374,318
1686016526.3139565,317
1686016526.3267727,316
1686016526.34197,316
1686016526.354913,318
1686016526.3711586,319
1686016526.3834622,319
1686016526.3960865,318
1686016526.4121268,317
1686016526.4241898,319
1686016526.4367418,319
1686016526.453239,320
1686016526.4655025,319
1686016526.4779725,317
1686016526.4942725,317
1686016526.506212,318
1686016526.5224812,318
1686016526.534435,318
1686016526.5471287,317
1686016526.5630167,316
1686016526.5761058,316
1686016526.5883815,317
1686016526.6047177,318
1686016526.6166077,318
1686016526.6288073,317
1686016526.6457663,317
1686016526.6579268,317
1686016526.6700332,318
1686016526.6862783,319
1686016526.698273,319
1686016526.7144918,318
1686016526.7278495,317
1686016526.7393203,318
1686016526.7561164,319
1686016526.7680101,320
1686016526.7803788,320
1686016526.797088,319
1686016526.8092723,318
1686016526.821682,320
1686016526.838094,321
1686016526.850374,322
1686016526.8664706,321
1686016526.879046,321
1686016526.8910427,321
1686016526.9077506,322
1686016526.919288,323
1686016526.931726,323
1686016526.9486616,321
1686016526.96113,320
1686016526.97333,320
1686016526.9890678,321
1686016527.0019908,321
1686016527.0140722,320
1686016527.0314322,318
1686016527.042884,318
1686016527.0587785,318
1686016527.0715325,319
1686016527.08353,320
1686016527.0995169,320
1686016527.1125178,319
1686016527.1245317,318
1686016527.14057,319
1686016527.1525707,320
1686016527.1657283,321
1686016527.1815329,319
1686016527.1945379,319
1686016527.2105327,319
1686016527.2225335,320
1686016527.2356863,321
1686016527.2515323,320
1686016527.2642317,319
1686016527.2761815,318
1686016527.292754,318
1686016527.3050337,319
1686016527.3172975,319
1686016527.3338332,318
1686016527.3458319,317
1686016527.3578248,316
1686016527.375263,316
1686016527.3862517,316
1686016527.4036384,316
1686016527.415644,314
1686016527.4277515,312
1686016527.4442308,312
1686016527.4562094,312
1686016527.4682648,312
1686016527.4852662,312
1686016527.4972527,311
1686016527.5101376,310
1686016527.526211,310
1686016527.5387528,312
1686016527.5551815,313
1686016527.5671797,313
1686016527.5794637,312
1686016527.595495,312
1686016527.6075478,313
1686016527.620159,315
1686016527.6368284,315
1686016527.6484747,315
1686016527.6614182,314
1686016527.6780639,314
1686016527.6900346,315
1686016527.7054543,317
1686016527.7189476,317
1686016527.7300968,317
1686016527.7471135,316
1686016527.7590995,316
1686016527.7720022,317
1686016527.7886915,319
1686016527.8002172,320
1686016527.8131046,319
1686016527.8293247,319
1686016527.8411832,320
1686016527.8531253,322
1686016527.8699863,323
1686016527.882605,323
1686016527.899173,322
1686016527.9112809,322
1686016527.9232235,322
1686016527.9395866,323
1686016527.9522214,324
1686016527.964226,323
1686016527.980308,322
1686016527.9926794,321
1686016528.0046952,322
1686016528.021697,322
1686016528.0341265,323
1686016528.050168,321
1686016528.0621674,320
1686016528.074702,320
1686016528.0915048,321
1686016528.1038098,322
1686016528.115636,322
1686016528.1316617,320
1686016528.144664,319
1686016528.1566691,320
1686016528.1726675,320
1686016528.1856654,321
1686016528.2016842,321
1686016528.21446,320
1686016528.2265825,319
1686016528.2431448,319
1686016528.2549462,320
1686016528.2672844,320
1686016528.283251,319
1686016528.2956865,318
1686016528.3088493,317
1686016528.324616,318
1686016528.3368642,319
1686016528.3494587,319
1686016528.3660104,318
1686016528.3775847,317
1686016528.3940299,316
1686016528.407041,317
1686016528.419082,318
1686016528.4356148,317
1686016528.447939,316
1686016528.460212,315
1686016528.476198,315
1686016528.4880428,316
1686016528.5011373,316
1686016528.5173557,316
1686016528.5296059,315
1686016528.5457335,314
1686016528.5577075,314
1686016528.5703475,315
1686016528.586329,316
1686016528.5997458,315
1686016528.611495,314
1686016528.6273925,313
1686016528.640648,314
1686016528.6524649,315
1686016528.669018,315
1686016528.6811583,314
1686016528.6937788,314
1686016528.7092032,313
1686016528.72214,315
1686016528.738486,316
1686016528.7511053,316
1686016528.763101,315
1686016528.7798688,314
1686016528.7919168,314
1686016528.8042803,315
1686016528.8202062,316
1686016528.8330066,316
1686016528.845056,314
1686016528.8606102,314
1686016528.873731,315
1686016528.8897552,316
1686016528.9025476,316
1686016528.9146194,315
1686016528.930679,314
1686016528.9426727,314
1686016528.9559042,315
1686016528.9716246,316
1686016528.9841723,316
1686016528.9967418,315
1686016529.0130928,314
1686016529.0254145,314
1686016529.0412056,316
1686016529.0542266,317
1686016529.066121,316
1686016529.0822153,315
1686016529.0942094,314
1686016529.1072452,315
1686016529.1232717,316
1686016529.1362076,317
1686016529.1484299,316
1686016529.1645598,315
1686016529.1769142,314
1686016529.1888225,315
1686016529.2063055,316
1686016529.217834,316
1686016529.2339401,315
1686016529.2462916,314
1686016529.2589123,314
1686016529.2747638,315
1686016529.2874842,316
1686016529.3003628,316
1686016529.3160152,315
1686016529.3280416,314
1686016529.340271,313
1686016529.3572166,314
1686016529.3692024,315
1686016529.3848622,315
1686016529.3973887,313
1686016529.4100204,312
1686016529.4263575,312
1686016529.43848,313
1686016529.450479,314
1686016529.467954,313
1686016529.4795084,312
1686016529.4922924,311
1686016529.5084715,311
1686016529.520605,312
1686016529.533805,313
1686016529.5495992,311
1686016529.561646,310
1686016529.5782027,309
1686016529.5902076,310
1686016529.6026192,311
1686016529.6191852,311
1686016529.631463,309
1686016529.643854,308
1686016529.659488,308
1686016529.672481,309
1686016529.6845434,310
1686016529.7011101,310
1686016529.7129018,309
1686016529.7292426,308
1686016529.7412226,308
1686016529.7542396,309
1686016529.7707286,310
1686016529.7822423,309
1686016529.795415,308
1686016529.812002,307
1686016529.8242269,308
1686016529.8362262,309
1686016529.8529775,309
1686016529.8648877,308
1686016529.8809848,307
1686016529.8930802,307
1686016529.9062219,308
1686016529.9217653,309
1686016529.9348166,309
1686016529.946869,308
1686016529.9628751,307
1686016529.9757564,308
1686016529.988163,309
1686016530.0042193,310
1686016530.0166066,309
1686016530.0291202,308
1686016530.0452383,308
1686016530.0571485,308
1686016530.0739703,309
1686016530.086323,310
1686016530.09826,309
1686016530.1144173,307
1686016530.1264563,306
1686016530.1393995,307
1686016530.1551814,308
1686016530.1681876,309
1686016530.1801872,308
1686016530.1961854,307
1686016530.2090669,306
1686016530.2249565,308
1686016530.2378871,309
1686016530.2498872,309
1686016530.266045,308
1686016530.2783387,308
1686016530.2903564,308
1686016530.3076105,310
1686016530.3192434,311
1686016530.3320503,310
1686016530.3479948,308
1686016530.3606641,306
1686016530.372869,307
1686016530.3886595,308
1686016530.4016156,310
1686016530.4176815,309
1686016530.4305754,308
1686016530.4416177,308
1686016530.458589,309
1686016530.4706175,310
1686016530.4833946,310
1686016530.4994075,309
1686016530.5121377,308
1686016530.5243974,308
1686016530.5399048,310
1686016530.5529435,311
1686016530.5695448,311
1686016530.581491,310
1686016530.5941534,308
1686016530.6104307,309
1686016530.6222615,310
1686016530.6350167,311
1686016530.651112,310
1686016530.663501,309
1686016530.6754727,309
1686016530.6924088,310
1686016530.7049031,311
1686016530.7204406,311
1686016530.73324,311
1686016530.7452278,310
1686016530.761315,311
1686016530.7745755,312
1686016530.786828,313
1686016530.8028502,314
1686016530.8151746,313
1686016530.827288,312
1686016530.8431787,313
1686016530.8562355,315
1686016530.8681898,316
1686016530.8841817,316
1686016530.897195,315
1686016530.9131637,315
1686016530.9254534,316
1686016530.9378195,317
1686016530.954646,318
1686016530.9667425,318
1686016530.9793463,318
1686016530.995176,318
1686016531.0075474,319
1686016531.0193274,320
1686016531.0363603,321
1686016531.0488126,321
1686016531.0646734,320
1686016531.0773723,320
1686016531.0895743,321
1686016531.1056561,322
1686016531.1184106,323
1686016531.1305115,322
1686016531.1469667,320
1686016531.1593146,321
1686016531.1714153,322
1686016531.1879497,323
1686016531.2002776,322
1686016531.2122614,321
1686016531.2282588,320
1686016531.241258,321
1686016531.2578351,323
1686016531.2699122,324
1686016531.2820399,323
1686016531.2987351,322
1686016531.3107808,322
1686016531.3230422,322
1686016531.339415,324
1686016531.3520558,324
1686016531.3639314,323
1686016531.3803246,321
1686016531.392367,321
1686016531.4092326,322
1686016531.4207327,323
1686016531.4331958,323
1686016531.4496608,321
1686016531.4617617,320
1686016531.474706,314
1686016531.4905784,309
1686016531.5041082,310
1686016531.5154924,309
1686016531.5321686,308
1686016531.5450954,309
1686016531.5597425,311
1686016531.5729926,310
1686016531.5847137,306
1686016531.6010492,303
1686016531.613608,303
1686016531.625434,305
1686016531.6425323,310
1686016531.6548352,317
1686016531.6670678,323
1686016531.6839337,327
1686016531.695499,330
1686016531.7073529,335
1686016531.7236664,339
1686016531.736658,341
1686016531.752666,343
1686016531.765552,342
1686016531.7774355,340
1686016531.7934313,338
1686016531.8063238,337
1686016531.818708,336
1686016531.835228,333
1686016531.8472104,330
1686016531.859947,328
1686016531.8761797,327
1686016531.8881414,327
1686016531.9049528,327
1686016531.9177854,324
1686016531.929184,322
1686016531.9452608,320
1686016531.9573963,320
1686016531.9701939,321
1686016531.9869235,321
1686016531.9991055,319
1686016532.0106752,318
1686016532.0277705,317
1686016532.039839,319
1686016532.0562415,319
1686016532.0691054,319
1686016532.0810823,318
1686016532.0970006,317
1686016532.1095378,317
1686016532.1214037,318
1686016532.1381333,319
1686016532.1505487,318
1686016532.162587,317
1686016532.1792984,316
1686016532.190641,317
1686016532.2035944,318
1686016532.2194192,319
1686016532.232402,318
1686016532.2483983,316
1686016532.2604709,316
1686016532.2733996,317
1686016532.289401,318
1686016532.3014042,318
1686016532.313453,317
1686016532.3303995,316
1686016532.3428319,316
1686016532.3544579,317
1686016532.3713973,319
1686016532.383433,318
1686016532.3994284,317
1686016532.4123962,316
1686016532.4244282,316
1686016532.4404452,318
1686016532.4534442,318
1686016532.4656272,317
1686016532.4818652,315
1686016532.4944801,314
1686016532.506571,315
1686016532.5231574,316
1686016532.5352862,317
1686016532.5473418,315
1686016532.5639153,314
1686016532.5760949,314
1686016532.5929906,315
1686016532.6049979,316
1686016532.617037,317
1686016532.6331818,315
1686016532.6451316,314
1686016532.658142,313
1686016532.6737149,315
1686016532.6867135,316
1686016532.6987755,315
1686016532.7153165,313
1686016532.7277963,311
1686016532.743968,311
1686016532.7560244,312
1686016532.7681572,313
1686016532.7852232,312
1686016532.7973096,310
1686016532.809462,310
1686016532.8253648,311
1686016532.8383627,312
1686016532.8504837,313
1686016532.867242,312
1686016532.8794072,311
1686016532.89536,310
1686016532.9073226,312
1686016532.9201462,313
1686016532.9370835,314
1686016532.9491985,313
1686016532.9611938,311
1686016532.9774137,312
1686016532.9900856,314
1686016533.0024095,315
1686016533.018921,315
1686016533.0309644,313
1686016533.0431802,312
1686016533.0599394,313
1686016533.0713892,315
1686016533.0877934,316
1686016533.100334,315
1686016533.112811,313
1686016533.1292765,313
1686016533.1417146,314
1686016533.1537344,315
1686016533.170354,316
1686016533.1828506,315
1686016533.1942558,314
1686016533.2111313,313
1686016533.2234263,314
1686016533.2393222,316
1686016533.2513566,316
1686016533.2643578,314
1686016533.280348,313
1686016533.2932734,313
1686016533.3052733,315
1686016533.3219967,316
1686016533.3336282,315
1686016533.346967,314
1686016533.362786,313
1686016533.3750541,313
1686016533.3914783,315
1686016533.4039085,316
1686016533.4161205,315
1686016533.4324765,313
1686016533.44422,313
1686016533.4567304,314
1686016533.473454,315
1686016533.4855366,316
1686016533.497706,315
1686016533.5139315,313
1686016533.5267978,313
1686016533.5389564,315
1686016533.5552738,316
1686016533.5674734,316
1686016533.5835207,315
1686016533.596381,314
1686016533.608874,314
1686016533.624271,316
1686016533.6372678,317
1686016533.6493843,316
1686016533.6659746,315
1686016533.6773858,314
1686016533.6902614,314
1686016533.7063718,316
1686016533.7183707,317
1686016533.7358153,316
1686016533.7479799,314
1686016533.7599125,314
1686016533.7767928,315
1686016533.7890844,317
1686016533.8004463,317
1686016533.817309,316
1686016533.829236,315
1686016533.8412488,315
1686016533.858429,316
1686016533.871045,317
1686016533.8862371,317
1686016533.8993118,316
1686016533.9113889,315
1686016533.9280286,315
1686016533.9402232,317
1686016533.9522321,318
1686016533.969192,317
1686016533.9812267,316
1686016533.993104,315
1686016534.0096548,315
1686016534.0217278,317
1686016534.0348454,317
1686016534.050897,317
1686016534.062898,315
1686016534.0792356,315
1686016534.0911615,316
1686016534.1037292,317
1686016534.1208448,318
1686016534.1320434,316
1686016534.144769,315
1686016534.1617682,315
1686016534.17373,316
1686016534.1857524,317
1686016534.2025518,317
1686016534.214839,316
1686016534.2311802,315
1686016534.2431734,315
1686016534.2551813,316
1686016534.2722917,318
1686016534.284112,317
1686016534.296911,316
1686016534.3128183,315
1686016534.3254118,316
1686016534.3376102,317
1686016534.353995,318
1686016534.3664103,317
1686016534.3784485,315
1686016534.394456,315
1686016534.4073334,316
1686016534.4232435,317
1686016534.4363685,318
1686016534.4483223,316
1686016534.4643135,315
1686016534.476675,315
1686016534.489405,317
1686016534.5052836,318
1686016534.5172992,317
1686016534.5297766,316
1686016534.5464332,314
1686016534.5585897,315
1686016534.5747948,316
1686016534.5872004,317
1686016534.5992684,316
1686016534.6157773,314
1686016534.627861,314
1686016534.6408725,314
1686016534.6567392,316
1686016534.6695888,317
1686016534.6818836,316
1686016534.698524,314
1686016534.7099688,314
1686016534.726503,315
1686016534.739001,317
1686016534.7512302,317
1686016534.767626,316
1686016534.7799082,315
1686016534.7922606,315
1686016534.8087068,316
1686016534.820966,317
1686016534.8332362,317
1686016534.8491745,316
1686016534.8620288,315
1686016534.8741484,315
1686016534.890541,316
1686016534.9031498,317
1686016534.9191492,316
1686016534.9311447,315
1686016534.9433663,314
1686016534.9602838,314
1686016534.972178,316
1686016534.985082,317
1686016535.0007908,316
1686016535.0129013,314
1686016535.0259583,314
1686016535.0422232,315
1686016535.0544338,316
1686016535.0708075,316
1686016535.0832343,315
1686016535.0952592,314
1686016535.1112869,314
1686016535.1235664,315
1686016535.1365323,316
1686016535.1530015,316
1686016535.1650558,314
1686016535.1772513,313
1686016535.1930776,314
1686016535.2051332,315
1686016535.221445,316
1686016535.234335,315
1686016535.2472777,314
1686016535.2627492,313
1686016535.2752786,314
1686016535.2881825,315
1686016535.304374,316
1686016535.3162675,315
1686016535.3285365,314
1686016535.3448868,313
1686016535.356861,314
1686016535.3698323,316
1686016535.3858757,316
1686016535.3985465,315
1686016535.414168,313
1686016535.4264293,314
1686016535.4394658,315
1686016535.4554665,316
1686016535.4674666,316
1686016535.4806278,314
1686016535.4965801,314
1686016535.5087478,314
1686016535.5211165,316
1686016535.5377645,317
1686016535.54983,316
1686016535.5664132,314
1686016535.5787168,314
1686016535.592223,315
1686016535.6068726,317
1686016535.6191275,318
1686016535.6314013,316
1686016535.648371,314
1686016535.6599002,314
1686016535.672896,315
1686016535.6888957,316
1686016535.701855,317
1686016535.7138736,315
1686016535.7301836,313
1686016535.7425146,314
1686016535.758803,315
1686016535.7712257,316
1686016535.783547,316
1686016535.7997723,314
1686016535.8122394,313
1686016535.8242853,314
1686016535.841663,315
1686016535.8531928,316
1686016535.8654075,315
1686016535.881448,314
1686016535.893457,313
1686016535.9100232,313
1686016535.922852,315
1686016535.9349759,315
1686016535.9519756,314
1686016535.9639606,312
1686016535.9759831,312
1686016535.9919708,313
1686016536.0050173,315
1686016536.0169797,315
1686016536.033988,313
1686016536.0450156,312
1686016536.0580072,313
1686016536.0742383,314
1686016536.0860138,315
1686016536.1030338,315
1686016536.1149807,313
1686016536.127435,313
1686016536.1439826,313
1686016536.1562493,315
1686016536.1680171,316
1686016536.1850379,315
1686016536.1969547,314
1686016536.2089615,313
1686016536.2256935,314
1686016536.238067,316
1686016536.2540147,316
1686016536.2659945,315
1686016536.279015,314
1686016536.2956412,314
1686016536.307325,315
1686016536.3200183,316
1686016536.3365736,316
1686016536.349174,315
1686016536.3605204,314
1686016536.376809,314
1686016536.389558,316
1686016536.4058762,317
1686016536.4178166,317
1686016536.429825,315
1686016536.4462879,314
1686016536.4590037,315
1686016536.4713318,316
1686016536.4874403,317
1686016536.5003479,316
1686016536.5123549,314
1686016536.528395,314
1686016536.541337,315
1686016536.553336,316
1686016536.569421,316
1686016536.5819662,315
1686016536.5982916,314
1686016536.610961,313
1686016536.6229765,315
1686016536.6392856,316
1686016536.6520154,316
1686016536.6639829,315
1686016536.6800325,313
1686016536.6921124,314
1686016536.7046764,315
1686016536.721677,316
1686016536.733495,316
1686016536.749826,314
1686016536.762544,314
1686016536.7744946,314
1686016536.7908113,316
1686016536.8035047,317
1686016536.8155072,315
1686016536.8315444,314
1686016536.844657,313
1686016536.8568041,314
1686016536.8728476,315
1686016536.8848286,316
1686016536.9015737,315
1686016536.9134898,313
1686016536.9261925,313
1686016536.942247,315
1686016536.9546661,316
1686016536.9670348,316
1686016536.9834156,314
1686016536.9959512,314
1686016537.0081532,314
1686016537.0244234,315
1686016537.0361636,316
1686016537.0490878,316
1686016537.0654092,314
1686016537.0771909,314
1686016537.0940897,314
1686016537.1064172,316
1686016537.1180995,317
1686016537.135109,315
1686016537.1472979,314
1686016537.159157,314
1686016537.1760898,315
1686016537.188146,317
1686016537.200094,317
1686016537.2170966,316
1686016537.2291355,314
1686016537.2450852,314
1686016537.2581465,316
1686016537.2696362,317
1686016537.2866526,317
1686016537.2988255,315
1686016537.311136,315
1686016537.3277721,317
1686016537.3395262,320
1686016537.352258,322
1686016537.3689663,322
1686016537.3801796,321
1686016537.3970046,321
1686016537.4099166,323
1686016537.4219291,325
1686016537.4381576,327
1686016537.4502256,327
1686016537.462909,325
1686016537.4790754,324
1686016537.4912217,324
1686016537.5039918,325
1686016537.519927,325
1686016537.5322223,322
1686016537.5446048,321
1686016537.5606148,322
1686016537.5735164,323
1686016537.5895026,325
1686016537.6015468,323
1686016537.6145551,321
1686016537.6306164,320
1686016537.6425023,321
1686016537.6545115,321
1686016537.6718533,322
1686016537.683578,321
1686016537.6964605,318
1686016537.7127738,317
1686016537.7254198,318
1686016537.7407699,319
1686016537.7534025,319
1686016537.7657409,317
1686016537.78246,315
1686016537.7944012,314
1686016537.8067293,315
1686016537.823411,317
1686016537.8353393,316
1686016537.8479981,315
1686016537.8639317,313
1686016537.8759284,313
1686016537.8879669,315
1686016537.9050503,316
1686016537.917233,316
1686016537.9339218,314
1686016537.9460406,313
1686016537.9581435,313
1686016537.9749851,315
1686016537.9872086,315
1686016537.9989514,315
1686016538.015944,313
1686016538.028027,312
1686016538.0401516,313
1686016538.0564997,314
1686016538.0692275,315
1686016538.0852814,314
1686016538.0974388,312
1686016538.109168,311
1686016538.1261578,312
1686016538.138483,313
1686016538.1502075,313
1686016538.1671636,311
1686016538.1796682,310
1686016538.1920984,309
1686016538.2081628,311
1686016538.2200983,312
1686016538.236155,312
1686016538.2491553,310
1686016538.2610936,309
1686016538.2771392,310
1686016538.290156,311
1686016538.3025188,312
1686016538.3189125,311
1686016538.331155,310
1686016538.3431032,309
1686016538.3592145,310
1686016538.371272,312
1686016538.3835754,312
1686016538.4005594,311
1686016538.4127014,312
1686016538.428567,313
1686016538.4415214,316
1686016538.453649,319
1686016538.469746,319
1686016538.481747,316
1686016538.4947195,314
1686016538.5107899,313
1686016538.5228598,314
1686016538.534861,314
1686016538.5521014,315
1686016538.5641253,312
1686016538.5801737,311
1686016538.5930882,314
1686016538.605084,317
1686016538.6210892,320
1686016538.634056,321
1686016538.6461525,322
1686016538.662187,323
1686016538.6750572,326
1686016538.6870582,328
1686016538.7034302,327
1686016538.7161665,323
1686016538.7281387,318
1686016538.744134,314
1686016538.7571497,312
1686016538.7734213,310
1686016538.785598,307
1686016538.7979524,303
1686016538.8141637,300
1686016538.8268516,298
1686016538.8391116,298
1686016538.8550963,298
1686016538.8674128,296
1686016538.88011,293
1686016538.896241,291
1686016538.9081028,291
1686016538.9248574,292
1686016538.9372375,292
1686016538.9491482,291
1686016538.9660916,290
1686016538.9781523,289
1686016538.9904082,292
1686016539.0071123,294
1686016539.0191185,296
1686016539.0314262,296
1686016539.0481505,296
1686016539.0602844,297
1686016539.076202,299
1686016539.0892644,301
1686016539.101272,302
1686016539.117294,301
1686016539.1295326,300
1686016539.1421998,300
1686016539.1581445,302
1686016539.1701972,303
1686016539.1832216,303
1686016539.199146,301
1686016539.211461,301
1686016539.2242234,302
1686016539.2401538,304
1686016539.2526762,305
1686016539.2692034,304
1686016539.2811432,303
1686016539.293144,304
1686016539.3101845,305
1686016539.321564,308
1686016539.33452,310
1686016539.3507874,311
1686016539.3631122,313
1686016539.3758702,318
1686016539.3918524,324
1686016539.4038181,334
1686016539.4200528,341
1686016539.433176,351
1686016539.4450388,361
1686016539.4613502,372
1686016539.473743,384
1686016539.486038,394
1686016539.5020478,402
1686016539.5147502,405
1686016539.5268028,408
1686016539.543053,409
1686016539.5551665,412
1686016539.5681775,409
1686016539.5843883,404
1686016539.596093,399
1686016539.6131651,394
1686016539.6250954,390
1686016539.6373374,386
1686016539.6542752,381
1686016539.6662838,373
1686016539.6783416,364
1686016539.6943269,355
1686016539.7073271,346
1686016539.719318,335
1686016539.7355852,322
1686016539.7483015,308
1686016539.7646053,295
1686016539.77629,286
1686016539.78934,278
1686016539.8058546,271
1686016539.8178682,264
1686016539.830097,256
1686016539.8459108,251
1686016539.85887,249
1686016539.8710818,250
1686016539.8875706,250
1686016539.8998382,249
1686016539.9157283,249
1686016539.928572,249
1686016539.9405124,253
1686016539.9565034,256
1686016539.969503,259
1686016539.9816005,260
1686016539.9975047,261
1686016540.010527,265
1686016540.0225818,270
1686016540.0390625,275
1686016540.0515614,278
1686016540.0636656,280
1686016540.079934,282
1686016540.0915945,284
1686016540.108607,287
1686016540.1205943,291
1686016540.1325889,291
1686016540.149592,291
1686016540.161951,292
1686016540.1742306,294
1686016540.1906734,297
1686016540.2026112,299
1686016540.214688,299
1686016540.2316635,298
1686016540.2438288,299
1686016540.25967,301
1686016540.2726226,304
1686016540.2841687,304
1686016540.3011725,302
1686016540.313109,299
1686016540.3251758,297
1686016540.3421206,298
1686016540.3544254,299
1686016540.3664176,298
1686016540.3830981,297
1686016540.3953006,297
1686016540.4114268,298
1686016540.4241543,301
1686016540.4361737,306
1686016540.4524276,309
1686016540.4650972,310
1686016540.4776437,311
1686016540.4932227,314
1686016540.5061576,317
1686016540.5182624,319
1686016540.5342917,319
1686016540.5471618,318
1686016540.5591116,319
1686016540.5755236,320
1686016540.5875118,322
1686016540.6035619,323
1686016540.6165996,322
1686016540.6288488,321
1686016540.6448355,322
1686016540.657509,324
1686016540.6695397,325
1686016540.685874,325
1686016540.698582,323
1686016540.7105548,322
1686016540.7275207,323
1686016540.7395666,324
1686016540.7552054,325
1686016540.7680206,323
1686016540.7800362,321
1686016540.7967286,320
1686016540.8089952,321
1686016540.8211763,322
1686016540.837771,321
1686016540.8499177,320
1686016540.8622425,318
1686016540.8782012,318
1686016540.891147,319
1686016540.9031453,320
1686016540.9191918,320
1686016540.9321253,319
1686016540.9481452,317
1686016540.960401,318
1686016540.9721942,319
1686016540.989309,319
1686016541.0010803,319
1686016541.0140972,317
1686016541.0300868,316
1686016541.0423813,316
1686016541.0550952,317
1686016541.0710871,318
1686016541.0829856,317
1686016541.099834,315
1686016541.111756,315
1686016541.1247559,316
1686016541.140758,318
1686016541.153051,318
1686016541.1657512,317
1686016541.181803,316
1686016541.1937315,317
1686016541.2061074,319
1686016541.222749,320
1686016541.2349327,321
1686016541.250986,320
1686016541.2633226,320
1686016541.2763207,320
1686016541.2926254,322
1686016541.3043249,324
1686016541.317219,324
1686016541.3333673,322
1686016541.3453023,321
1686016541.3571901,321
1686016541.3742588,323
1686016541.3861601,324
1686016541.3988218,323
1686016541.415302,321
1686016541.4269695,321
1686016541.4442346,322
1686016541.455952,324
1686016541.4687655,325
1686016541.4848,323
1686016541.4968965,322
1686016541.5091846,322
1686016541.5260007,323
1686016541.538432,324
1686016541.5505214,323
1686016541.5671322,321
1686016541.5791852,319
1686016541.5952885,319
1686016541.6073751,320
1686016541.6202085,321
1686016541.6363456,320
1686016541.6492121,318
1686016541.661145,317
1686016541.6768808,317
1686016541.6889312,319
1686016541.7022333,319
1686016541.7185218,318
1686016541.730595,316
1686016541.7424238,316
1686016541.7594,317
1686016541.7713075,318
1686016541.787662,318
1686016541.8003092,317
1686016541.812315,315
1686016541.82836,315
1686016541.8413224,317
1686016541.8535957,318
1686016541.8693078,317
1686016541.8813043,316
1686016541.8943088,315
1686016541.9103687,315
1686016541.922307,317
1686016541.9393055,318
1686016541.9513023,317
1686016541.9638925,315
1686016541.980463,314
1686016541.9924579,314
1686016542.0044568,316
1686016542.0214574,316
1686016542.033461,315
1686016542.045508,314
1686016542.0625122,314
1686016542.0745027,315
1686016542.0901215,317
1686016542.1029594,318
1686016542.1155393,316
1686016542.1317163,315
1686016542.1442785,315
1686016542.155997,317
1686016542.1725395,318
1686016542.1854546,318
1686016542.197704,317
1686016542.213302,315
1686016542.226235,316
1686016542.2388418,317
1686016542.2547197,318
1686016542.2672913,318
1686016542.283903,316
1686016542.2954524,315
1686016542.3083546,316
1686016542.324349,318
1686016542.3371606,319
1686016542.349076,318
1686016542.3653913,316
1686016542.377464,316
1686016542.3900707,317
1686016542.4058993,318
1686016542.41843,319
1686016542.4348085,317
1686016542.4476385,316
1686016542.4599147,316
1686016542.475928,317
1686016542.488558,318
1686016542.5008929,318
1686016542.5164137,316
1686016542.5292995,315
1686016542.5415893,315
1686016542.5575826,317
1686016542.5704129,317
1686016542.586702,317
1686016542.5988133,315
1686016542.6108475,314
1686016542.627009,314
1686016542.6401567,316
1686016542.6522188,317
1686016542.6679473,317
1686016542.6811128,316
1686016542.6931856,316
1686016542.709187,318
1686016542.7219071,320
1686016542.7342165,321
1686016542.7504954,321
1686016542.7626345,320
1686016542.7784243,320
1686016542.791483,321
1686016542.8034523,323
1686016542.8198864,322
1686016542.8319964,320
1686016542.8450212,318
1686016542.8605886,318
1686016542.8728878,320
1686016542.884893,321
1686016542.9021814,321
1686016542.9143007,320
1686016542.9308722,320
1686016542.9425697,322
1686016542.95525,324
1686016542.972002,324
1686016542.9836547,322
1686016542.9959173,319
1686016543.01292,318
1686016543.024662,318
1686016543.037308,318
1686016543.0534282,317
1686016543.0654414,315
1686016543.0823343,312
1686016543.0943775,312
1686016543.1066542,313
1686016543.1233797,314
1686016543.1353772,314
1686016543.147387,313
1686016543.1643808,311
1686016543.17638,312
1686016543.1883833,314
1686016543.2053802,315
1686016543.2173815,314
1686016543.2293744,312
1686016543.2453785,312
1686016543.257376,313
1686016543.2744758,314
1686016543.2865908,315
1686016543.2984767,314
1686016543.315476,313
1686016543.3274827,312
1686016543.340481,314
1686016543.3564782,315
1686016543.36888,315
1686016543.3811011,314
1686016543.3976457,313
1686016543.409785,313
1686016543.426062,315
1686016543.438148,316
1686016543.4510581,316
1686016543.4666348,314
1686016543.4796367,313
1686016543.4917512,314
1686016543.5083928,315
1686016543.5203846,316
1686016543.5327048,315
1686016543.5493937,314
1686016543.5613859,313
1686016543.578163,314
1686016543.590107,316
1686016543.603149,316
1686016543.6185336,315
1686016543.6311908,314
1686016543.6431859,313
1686016543.659206,314
1686016543.6721678,316
1686016543.6844177,316
1686016543.7003198,315
1686016543.7129524,314
1686016543.725287,314
1686016543.7416556,315
1686016543.7536943,317
1686016543.7704191,316
1686016543.7827227,315
1686016543.7943714,314
1686016543.8112757,315
1686016543.8237934,316
1686016543.8360302,317
1686016543.8517942,316
1686016543.8640397,315
1686016543.8771846,314
1686016543.8932524,315
1686016543.9054365,316
1686016543.9213402,316
1686016543.9338844,315
1686016543.9459019,313
1686016543.9622962,313
1686016543.9757247,315
1686016543.987403,316
1686016544.0038457,316
1686016544.0163958,315
1686016544.0284002,313
1686016544.0441167,313
1686016544.057087,315
1686016544.0698154,316
1686016544.0852194,316
1686016544.0982265,314
1686016544.1145494,313
1686016544.1270952,314
1686016544.1382825,315
1686016544.1550162,316
1686016544.1673758,315
1686016544.1794105,314
1686016544.1967003,313
1686016544.209108,314
1686016544.2211006,316
1686016544.237411,316
1686016544.2494621,315
1686016544.2663238,314
1686016544.2782872,314
1686016544.290311,315
1686016544.3063986,317
1686016544.3184502,317
1686016544.3315907,315
1686016544.3481026,314
1686016544.3598542,314
1686016544.3723686,316
1686016544.3881185,317
1686016544.4014773,316
1686016544.4173222,315
1686016544.4301317,314
1686016544.442102,314
1686016544.4583964,315
1686016544.4709198,316
1686016544.4828777,315
1686016544.4993956,313
1686016544.5117307,312
1686016544.523517,313
1686016544.5398784,314
1686016544.552907,315
1686016544.5649645,314
1686016544.581408,312
1686016544.5932882,312
1686016544.6101568,313
1686016544.6226134,315
1686016544.6346753,315
1686016544.6514094,314
1686016544.6634786,313
1686016544.6756086,313
1686016544.6920118,315
1686016544.7040107,316
1686016544.7167861,315
1686016544.733123,314
1686016544.7455308,313
1686016544.761317,313
1686016544.7734313,315
1686016544.7861917,316
1686016544.8024795,315
1686016544.8144937,313
1686016544.8272965,312
1686016544.84329,313
1686016544.855435,315
1686016544.8676765,315
1686016544.8837569,314
1686016544.897057,312
1686016544.9091601,312
1686016544.925689,314
1686016544.937365,315
1686016544.9542336,315
1686016544.965894,314
1686016544.9788294,312
1686016544.9952142,313
1686016545.007019,314
1686016545.019361,315
1686016545.0354843,315
1686016545.0483654,313
1686016545.0606337,312
1686016545.0772138,312
1686016545.0894358,314
1686016545.1054342,315
1686016545.1174679,314
1686016545.1302755,312
1686016545.1464682,311
1686016545.1583128,313
1686016545.1708367,314
1686016545.1875525,314
1686016545.1997905,313
1686016545.2118912,311
1686016545.2284224,311
1686016545.24084,313
1686016545.2571626,314
1686016545.2693622,314
1686016545.2817829,313
1686016545.297509,311
1686016545.3104632,312
1686016545.3224,313
1686016545.3393934,314
1686016545.3513868,313
1686016545.3639812,312
1686016545.3798382,311
1686016545.39235,312
1686016545.4043906,314
1686016545.4209094,315
1686016545.4329023,314
1686016545.4488919,313
1686016545.4621243,313
1686016545.4742918,314
1686016545.490367,315
1686016545.5025754,316
1686016545.5144796,314
1686016545.5311499,313
1686016545.544147,313
1686016545.5561407,315
1686016545.5717943,316
1686016545.584519,316
1686016545.60128,314
1686016545.6137445,313
1686016545.6254272,314
1686016545.6421294,315
1686016545.6537182,317
1686016545.666875,316
1686016545.683485,314
1686016545.6956651,313
1686016545.7081885,314
1686016545.7240677,316
1686016545.7364328,317
1686016545.753012,316
1686016545.765146,315
1686016545.7769175,314
1686016545.7938638,315
1686016545.8054821,317
1686016545.818425,317
1686016545.8343844,316
1686016545.846456,314
1686016545.8596237,315
1686016545.8759332,316
1686016545.887216,317
1686016545.900266,317
1686016545.916925,315
1686016545.9291975,314
1686016545.9451602,314
1686016545.9571595,316
1686016545.970189,317
1686016545.986393,316
1686016545.9985628,315
1686016546.010493,314
1686016546.0264947,315
1686016546.0397472,317
1686016546.051375,317
1686016546.0683775,316
1686016546.0804374,314
1686016546.096436,313
1686016546.1091552,314
1686016546.1214848,315
1686016546.1373346,315
1686016546.1495004,314
1686016546.162411,312
1686016546.1789026,312
1686016546.1908903,314
1686016546.2033226,315
1686016546.2200274,315
1686016546.2316692,314
1686016546.2477155,313
1686016546.2609763,313
1686016546.2725089,315
1686016546.28938,313
1686016546.3011208,309
1686016546.3139067,304
1686016546.3297677,302
1686016546.3422313,302
1686016546.3547342,303
1686016546.3715446,305
1686016546.3841903,304
1686016546.396159,304
1686016546.4124212,304
1686016546.424749,307
1686016546.4407961,309
1686016546.4531775,311
1686016546.466073,310
1686016546.481539,310
1686016546.494216,311
1686016546.5063503,313
1686016546.5223832,315
1686016546.535109,315
1686016546.5472932,314
1686016546.563242,314
1686016546.5755756,315
1686016546.5922966,317
1686016546.6042871,318
1686016546.6170683,318
1686016546.6331356,317
1686016546.6452737,318
1686016546.6579351,319
1686016546.6744118,321
1686016546.6864052,321
1686016546.6986015,320
1686016546.7153804,319
1686016546.727644,318
1686016546.7397132,319
1686016546.756253,321
1686016546.7682874,321
1686016546.7851522,319
1686016546.797308,317
1686016546.8098493,317
1686016546.826276,318
1686016546.8382194,319
1686016546.8507447,318
1686016546.8668742,316
1686016546.8793836,315
1686016546.891716,316
1686016546.9077451,317
1686016546.9197898,318
1686016546.936417,317
1686016546.9487138,316
1686016546.9606676,315
1686016546.9776971,316
1686016546.9893987,318
1686016547.002228,318
1686016547.018432,317
1686016547.0307643,316
1686016547.042773,315
1686016547.059496,316
1686016547.0716512,317
1686016547.0877826,316
1686016547.1003654,314
1686016547.1123571,313
1686016547.1286592,313
1686016547.1414597,315
1686016547.1533985,316
1686016547.1696897,316
1686016547.182116,314
1686016547.1944664,313
1686016547.2112303,314
1686016547.2231452,316
1686016547.2357976,317
1686016547.25219,316
1686016547.264137,315
1686016547.2805383,314
1686016547.2922437,316
1686016547.3044705,317
1686016547.321442,318
1686016547.3341098,317
1686016547.3461945,315
1686016547.362058,315
1686016547.3749304,317
1686016547.3867552,318
1686016547.4038928,318
1686016547.4159224,317
1686016547.4322329,315
1686016547.4444056,316
1686016547.4569318,317
1686016547.47293,318
1686016547.4854991,318
1686016547.4969957,316
1686016547.5140555,315
1686016547.5262916,316
1686016547.5380101,317
1686016547.5550072,318
1686016547.5670097,317
1686016547.5831559,315
1686016547.5951233,314
1686016547.608236,315
1686016547.6244948,317
1686016547.636443,317
1686016547.6484435,316
1686016547.6654391,314
1686016547.677456,314
1686016547.689437,316
1686016547.7065442,317
1686016547.7185776,318
1686016547.7308128,316
1686016547.7475224,315
1686016547.7597392,316
1686016547.7758162,317
1686016547.78832,318
1686016547.8008463,318
1686016547.8171346,316
1686016547.8288388,315
1686016547.8417907,315
1686016547.8578,317
1686016547.8697867,318
1686016547.8828468,317
1686016547.8991308,315
1686016547.9111567,314
1686016547.9271233,316
1686016547.93992,317
1686016547.9520864,318
1686016547.9680552,316
1686016547.9808044,315
1686016547.9931011,315
1686016548.0098386,316
1686016548.02176,317
1686016548.0337737,316
1686016548.0504909,314
1686016548.0624096,313
1686016548.0747485,313
1686016548.0913444,314
1686016548.1033344,315
1686016548.119697,314
1686016548.1324685,312
1686016548.1443307,311
1686016548.1613333,312
1686016548.173595,314
1686016548.1857955,315
1686016548.201856,315
1686016548.2141051,313
1686016548.2268682,314
1686016548.2427928,317
1686016548.2550473,320
1686016548.2718515,324
1686016548.2842925,325
1686016548.2957778,326
1686016548.3128395,327
1686016548.3248653,329
1686016548.336779,331
1686016548.353792,331
1686016548.3657782,329
1686016548.3788128,328
1686016548.394779,328
1686016548.406808,330
1686016548.4231505,331
1686016548.435775,330
1686016548.4477832,328
1686016548.4637854,327
1686016548.476153,328
1686016548.4888468,330
1686016548.5051036,331
1686016548.5168383,330
1686016548.5297782,328
1686016548.546327,329
1686016548.558802,330
1686016548.5707765,332
1686016548.5872087,332
1686016548.5992985,331
1686016548.615535,328
1686016548.6282876,326
1686016548.64023,324
1686016548.65661,320
1686016548.6686835,313
1686016548.6808527,305
1686016548.6979086,299
1686016548.7098486,295
1686016548.7218626,293
1686016548.737901,292
1686016548.7509098,290
1686016548.767189,287
1686016548.7791765,285
1686016548.7919178,285
1686016548.8078506,286
1686016548.8208494,287
1686016548.8328466,286
1686016548.8489056,285
1686016548.8615167,286
1686016548.873517,288
1686016548.8898625,291
1686016548.9024146,292
1686016548.9146397,292
1686016548.9303086,291
1686016548.9434075,293
1686016548.9595332,295
1686016548.9721417,298
1686016548.984175,299
1686016549.0002213,300
1686016549.0132866,301
1686016549.0252295,303
1686016549.041247,307
1686016549.0542047,311
1686016549.066311,315
1686016549.082543,316
1686016549.095231,318
1686016549.1114476,320
1686016549.1235347,323
1686016549.1352694,324
1686016549.1522138,324
1686016549.1647685,323
1686016549.1762717,323
1686016549.1927407,323
1686016549.205748,324
1686016549.2181,323
1686016549.2341926,321
1686016549.2460473,319
1686016549.2627237,318
1686016549.2747982,319
1686016549.2873087,319
1686016549.3037271,319
1686016549.3157837,316
1686016549.3278081,315
1686016549.344801,315
1686016549.3572628,316
1686016549.368768,316
1686016549.3857567,314
1686016549.3981118,312
1686016549.4101398,311
1686016549.4268198,312
1686016549.439138,314
1686016549.4554975,316
1686016549.467439,318
1686016549.4797285,320
1686016549.4964786,326
1686016549.5087512,334
1686016549.5204618,343
1686016549.537476,350
1686016549.5494761,357
1686016549.5617723,363
1686016549.5784879,371
1686016549.5908809,379
1686016549.6070607,386
1686016549.6193295,391
1686016549.6312523,394
1686016549.6480834,395
1686016549.6601682,397
1686016549.6719134,398
1686016549.6888528,398
1686016549.7008607,396
1686016549.7133772,391
1686016549.7298656,389
1686016549.742106,387
1686016549.7546098,386
1686016549.770864,383
1686016549.7829094,377
1686016549.7988489,370
1686016549.811918,365
1686016549.8242683,361
1686016549.8398519,357
1686016549.8528473,353
1686016549.8649552,345
1686016549.881848,339
1686016549.8939085,333
1686016549.9061456,328
1686016549.9221652,322
1686016549.9349308,310
1686016549.9508734,297
1686016549.9633727,285
1686016549.975758,274
1686016549.9922886,265
1686016550.0038095,256
1686016550.016756,247
1686016550.032876,240
1686016550.0448554,235
1686016550.0570076,234
1686016550.074194,235
1686016550.0861306,236
1686016550.1021721,236
1686016550.1149848,237
1686016550.1268144,239
1686016550.1437411,243
1686016550.1560466,248
1686016550.1676853,251
1686016550.1846821,252
1686016550.1967633,251
1686016550.209265,253
1686016550.2256868,258
1686016550.2377415,262
1686016550.2496953,265
1686016550.266045,266
1686016550.2786837,268
1686016550.2951348,272
1686016550.3068008,277
1686016550.3198,282
1686016550.3358185,285
1686016550.3481545,286
1686016550.3602707,288
1686016550.3768494,291
1686016550.389715,295
1686016550.4012046,299
1686016550.4178998,300
1686016550.4300535,301
1686016550.4460392,303
1686016550.4587166,306
1686016550.4707608,309
1686016550.48721,311
1686016550.5002291,311
1686016550.5119863,311
1686016550.5282145,314
1686016550.5409827,317
1686016550.5530324,320
1686016550.5689106,320
1686016550.5819619,319
1686016550.593809,318
1686016550.6106088,319
1686016550.6227856,321
1686016550.638884,321
1686016550.6515465,320
1686016550.6635797,318
1686016550.6795282,316
1686016550.69202,317
1686016550.7049303,318
1686016550.7209804,318
1686016550.7330403,316
1686016550.745739,314
1686016550.7620685,314
1686016550.7742615,315
1686016550.7897215,316
1686016550.8023434,316
1686016550.815406,314
1686016550.8313584,312
1686016550.8432946,312
1686016550.8562937,313
1686016550.8723783,313
1686016550.884368,311
1686016550.897078,308
1686016550.913898,305
1686016550.925943,305
1686016550.9418116,305
1686016550.954593,305
1686016550.9665973,304
1686016550.983155,302
1686016550.995729,302
1686016551.0077462,303
1686016551.023669,305
1686016551.0356734,305
1686016551.048758,304
1686016551.064669,304
1686016551.0767295,304
1686016551.0896866,307
1686016551.1056998,308
1686016551.1183715,307
1686016551.134361,304
1686016551.1463814,303
1686016551.1593587,303
1686016551.1757157,305
1686016551.1876044,307
1686016551.2005327,307
1686016551.216508,306
1686016551.228568,306
1686016551.2412639,308
1686016551.2572029,311
1686016551.2692041,313
1686016551.2859528,312
1686016551.2987595,311
1686016551.3106334,311
1686016551.326935,313
1686016551.3395817,315
1686016551.3515723,317
1686016551.3675723,316
1686016551.380571,316
1686016551.39263,317
1686016551.4090042,319
1686016551.4215922,321
1686016551.4336345,321
1686016551.4495625,320
1686016551.4626317,319
1686016551.4787204,319
1686016551.4908137,321
1686016551.5039413,321
1686016551.51976,320
1686016551.531804,318
1686016551.543807,316
1686016551.5608163,317
1686016551.5729182,318
1686016551.5849361,318
1686016551.6014643,315
1686016551.6134644,313
1686016551.6300426,312
1686016551.6427357,313
1686016551.654789,314
1686016551.6710672,314
1686016551.6837335,312
1686016551.695757,310
1686016551.7117412,310
1686016551.7237563,312
1686016551.7368057,312
1686016551.7527392,312
1686016551.7656658,310
1686016551.781394,309
1686016551.7939098,309
1686016551.8066826,311
1686016551.8226042,312
1686016551.8346639,311
1686016551.8476775,309
1686016551.8637693,309
1686016551.875894,310
1686016551.8885689,311
1686016551.904551,312
1686016551.9165032,311
1686016551.9285474,309
1686016551.9455464,309
1686016551.9584975,311
1686016551.9734871,313
1686016551.9865568,313
1686016551.9991126,312
1686016552.0150306,311
1686016552.0270889,311
1686016552.0401134,313
1686016552.0561156,315
1686016552.0680351,315
1686016552.0810843,313
1686016552.097014,313
1686016552.1097984,314
1686016552.1259348,316
1686016552.1377416,317
1686016552.1507385,316
1686016552.1667523,315
1686016552.179022,314
1686016552.1914425,316
1686016552.2074277,318
1686016552.2197404,319
1686016552.232462,318
1686016552.2489097,316
1686016552.2613535,317
1686016552.2733505,318
1686016552.2892754,320
1686016552.3022757,320
1686016552.3183813,319
1686016552.3305914,318
1686016552.342279,319
1686016552.3593779,320
1686016552.3712757,322
1686016552.384307,321
1686016552.4004457,320
1686016552.4126248,319
1686016552.424281,320
1686016552.4413755,322
1686016552.4535708,323
1686016552.4695897,322
1686016552.4825983,321
1686016552.4945743,320
1686016552.51035,322
1686016552.523278,324
1686016552.535345,325
1686016552.5515196,323
1686016552.5633042,322
1686016552.5763447,322
1686016552.5924206,323
1686016552.605351,324
1686016552.6212988,324
1686016552.6333342,323
1686016552.6453419,321
1686016552.6624765,321
1686016552.6743329,323
1686016552.6863406,324
1686016552.703342,324
1686016552.7156065,322
1686016552.728349,321
1686016552.7442803,322
1686016552.7565672,323
1686016552.7682765,324
1686016552.785352,323
1686016552.7976658,322
1686016552.8134668,321
1686016552.8264694,322
1686016552.8383756,323
1686016552.85438,324
1686016552.8673685,322
1686016552.8793752,320
1686016552.895492,320
1686016552.908391,321
1686016552.920765,322
1686016552.9370956,322
1686016552.9491444,321
1686016552.965152,319
1686016552.9780438,320
1686016552.9900265,321
1686016553.0065243,322
1686016553.0181966,322
1686016553.0311978,320
1686016553.0475135,319
1686016553.059531,320
1686016553.072288,321
1686016553.0880282,322
1686016553.1009676,321
1686016553.1130958,320
1686016553.1295025,319
1686016553.1420298,320
1686016553.1582162,322
1686016553.1705306,322
1686016553.1824014,321
1686016553.199137,319
1686016553.211197,319
1686016553.2232518,320
1686016553.239572,319
1686016553.252341,318
1686016553.2648995,316
1686016553.2809913,314
1686016553.2933228,314
1686016553.3092868,315
1686016553.3210588,316
1686016553.334407,314
1686016553.3504808,311
1686016553.3629272,310
1686016553.3749096,310
1686016553.390978,312
1686016553.4042335,314
1686016553.416163,313
1686016553.4321694,312
1686016553.444167,312
1686016553.4601696,314
1686016553.4731684,316
1686016553.4851646,317
1686016553.5018241,316
1686016553.5138204,315
1686016553.525812,315
1686016553.5428085,318
1686016553.5548105,320
1686016553.5668507,320
1686016553.5842733,318
1686016553.596005,317
1686016553.6079667,318
1686016553.6249976,320
1686016553.6369765,321
1686016553.6529253,321
1686016553.6662161,319
1686016553.6779256,319
1686016553.694929,319
1686016553.7069309,321
1686016553.7189238,323
1686016553.7356036,323
1686016553.7479799,322
1686016553.759795,322
1686016553.7765286,326
1686016553.7888029,330
1686016553.8054037,332
1686016553.817439,332
1686016553.8293517,331
1686016553.846244,331
1686016553.8588295,332
1686016553.8703654,334
1686016553.8876803,333
1686016553.8997605,331
1686016553.9117463,329
1686016553.9281998,329
1686016553.940239,331
1686016553.9570124,332
1686016553.9690614,331
1686016553.981295,329
1686016553.9979613,327
1686016554.0100498,327
1686016554.0223851,326
1686016554.0383751,324
1686016554.050377,320
1686016554.0633314,316
1686016554.0798848,314
1686016554.0920396,313
1686016554.104149,313
1686016554.1208627,314
1686016554.1326573,307
1686016554.149422,303
1686016554.1614225,302
1686016554.174185,304
1686016554.19031,306
1686016554.2020097,304
1686016554.2149856,304
1686016554.231269,303
1686016554.2434227,305
1686016554.2558136,308
1686016554.2721794,309
1686016554.2838292,309
1686016554.300857,307
1686016554.3131669,307
1686016554.325474,308
1686016554.3410213,309
1686016554.354368,310
1686016554.3658595,309
1686016554.382556,307
1686016554.3949893,307
1686016554.4066355,309
1686016554.424636,311
1686016554.4356797,311
1686016554.447658,309
1686016554.4653313,308
1686016554.4771981,309
1686016554.4931304,311
1686016554.5058014,312
1686016554.5179818,312
1686016554.5339558,310
1686016554.5464828,310
1686016554.5587986,311
1686016554.5745184,312
1686016554.587658,314
1686016554.5994496,313
1686016554.615429,312
1686016554.628418,312
1686016554.6450953,313
1686016554.657148,315
1686016554.6695745,316
1686016554.6855946,315
1686016554.6983466,314
1686016554.710484,314
1686016554.7264862,316
1686016554.7392354,318
1686016554.7513409,318
1686016554.7680237,318
1686016554.7800677,317
1686016554.7964482,318
1686016554.8083627,321
1686016554.8208764,322
1686016554.8374696,321
1686016554.8491628,320
1686016554.8612688,319
1686016554.8788538,319
1686016554.8904994,320
1686016554.9025588,321
1686016554.9185421,320
1686016554.9317849,318
1686016554.9440222,318
1686016554.9604058,319
1686016554.9720044,320
1686016554.9886048,321
1686016555.000549,320
1686016555.013385,318
1686016555.0301447,318
1686016555.0422888,319
1686016555.054593,321
1686016555.0707378,320
1686016555.083476,319
1686016555.0953536,317
1686016555.1120393,317
1686016555.1240878,318
1686016555.140793,319
1686016555.1525092,317
1686016555.166207,314
1686016555.181412,311
1686016555.1937735,311
1686016555.2062309,311
1686016555.2225163,311
1686016555.2350085,310
1686016555.2463875,308
1686016555.2634137,308
1686016555.2755725,308
1686016555.2914069,308
1686016555.3044157,308
1686016555.3162925,306
1686016555.332396,303
1686016555.3454916,303
1686016555.3578331,305
1686016555.3733888,307
1686016555.3859384,307
1686016555.3993533,306
1686016555.4154387,306
1686016555.4264958,307
1686016555.4397957,309
1686016555.4559288,311
1686016555.4683852,311
1686016555.4843626,310
1686016555.4969623,310
1686016555.5088017,311
1686016555.525467,313
1686016555.5380635,314
1686016555.550473,314
1686016555.5666053,312
1686016555.578332,311
1686016555.5912776,313
1686016555.6070073,314
1686016555.6189184,315
1686016555.6359272,314
1686016555.647918,312
1686016555.6599743,313
1686016555.6768773,314
1686016555.689573,316
1686016555.701115,316
1686016555.7181315,314
1686016555.7299988,314
1686016555.742634,314
1686016555.7586741,315
1686016555.771334,317
1686016555.7835505,316
1686016555.8000872,314
1686016555.812188,313
1686016555.8282986,314
1686016555.8403986,315
1686016555.8533301,316
1686016555.8697531,314
1686016555.8815875,313
1686016555.8934338,312
1686016555.9105973,313
1686016555.9225814,315
1686016555.9346502,315
1686016555.9516382,314
1686016555.9634438,312
1686016555.9798932,312
1686016555.9917245,314
1686016556.0045435,315
1686016556.0212972,315
1686016556.0334897,314
1686016556.0459387,313
1686016556.0621805,313
1686016556.0742192,315
1686016556.0861754,316
1686016556.1029174,315
1686016556.1149242,313
1686016556.1309855,313
1686016556.1439548,313
1686016556.1557257,315
1686016556.17272,315
1686016556.184344,314
1686016556.1971729,312
1686016556.2132983,312
1686016556.2251656,313
1686016556.238174,315
1686016556.2544198,315
1686016556.2664673,314
1686016556.2792008,313
1686016556.2958603,313
1686016556.307425,315
1686016556.324072,316
1686016556.3361492,316
1686016556.348342,315
1686016556.3644674,314
1686016556.3774607,314
1686016556.3894718,316
1686016556.405878,317
1686016556.4183493,316
1686016556.4303901,315
1686016556.446806,314
1686016556.4592116,315
1686016556.4760227,317
1686016556.4881873,318
1686016556.50002,317
1686016556.516007,315
1686016556.529169,315
1686016556.5411646,316
1686016556.5572715,318
1686016556.5694847,318
1686016556.5818,317
1686016556.598851,315
1686016556.6112144,315
1686016556.6273382,317
1686016556.6394684,318
1686016556.651978,318
1686016556.6681123,316
1686016556.680477,316
1686016556.6924837,316
1686016556.7084856,317
1686016556.7217956,319
1686016556.7333198,318
1686016556.7500916,316
1686016556.7624865,315
1686016556.774529,316
1686016556.7909777,317
1686016556.8029826,318
1686016556.8197217,317
1686016556.8313823,315
1686016556.8441637,315
1686016556.860991,316
1686016556.8727348,317
1686016556.8847303,317
1686016556.9017894,316
1686016556.9134228,314
1686016556.9264123,315
1686016556.9424329,316
1686016556.954751,318
1686016556.971032,318
1686016556.9837804,316
1686016556.9957793,315
1686016557.0123827,316
1686016557.0245278,318
1686016557.036848,319
1686016557.052999,318
1686016557.0655453,316
1686016557.0781598,315
1686016557.09434,316
1686016557.1062484,318
1686016557.122399,318
1686016557.1353214,317
1686016557.1472714,315
1686016557.1635363,315
1686016557.1755066,317
1686016557.1885538,318
1686016557.204261,318
1686016557.2170303,316
1686016557.2290375,315
1686016557.2459333,315
1686016557.2587729,317
1686016557.2698915,318
1686016557.2866113,317
1686016557.29849,316
1686016557.3154395,314
1686016557.327776,315
1686016557.3394418,317
1686016557.3564355,317
1686016557.3685272,316
1686016557.3802974,314
1686016557.3975058,314
1686016557.409654,315
1686016557.4221847,316
1686016557.4382243,317
1686016557.450233,316
1686016557.4670038,314
1686016557.479284,314
1686016557.491128,316
1686016557.5081022,317
1686016557.5195289,317
1686016557.5325124,316
1686016557.548726,314
1686016557.5604553,315
1686016557.5734084,316
1686016557.590063,317
1686016557.6026435,317
1686016557.6140478,315
1686016557.6307359,314
1686016557.6432366,315
1686016557.6595507,317
1686016557.671749,318
1686016557.6834655,317
1686016557.700278,315
1686016557.7124937,314
1686016557.7250109,315
1686016557.740661,317
1686016557.7536066,318
1686016557.76516,317
1686016557.7818677,315
1686016557.7942219,315
1686016557.8110747,316
1686016557.8233001,318
1686016557.835878,317
1686016557.85162,316
1686016557.863941,314
1686016557.8766618,314
1686016557.8925736,316
1686016557.9054122,317
1686016557.917158,317
1686016557.9333215,315
1686016557.9460433,314
1686016557.9623377,315
1686016557.9742765,317
1686016557.9872158,318
1686016558.0033803,317
1686016558.0160666,316
1686016558.028049,315
1686016558.0445085,316
1686016558.0569327,317
1686016558.0687938,318
1686016558.0857008,316
1686016558.097751,315
1686016558.1101384,315
1686016558.1264246,316
1686016558.1385863,317
1686016558.1546738,317
1686016558.167368,315
1686016558.1796024,314
1686016558.195515,314
1686016558.208006,316
1686016558.2202554,317
1686016558.2364695,317
1686016558.2494042,315
1686016558.2622333,314
1686016558.2782795,315
1686016558.2903433,316
1686016558.3070292,317
1686016558.3184824,316
1686016558.330571,314
1686016558.3468997,313
1686016558.3599465,315
1686016558.3722117,316
1686016558.388475,317
1686016558.4009278,315
1686016558.413215,314
1686016558.4295852,314
1686016558.4420655,315
1686016558.454126,317
1686016558.4704826,317
1686016558.4824758,316
1686016558.4988155,314
1686016558.5111446,315
1686016558.5234947,316
1686016558.539901,317
1686016558.5523517,316
1686016558.5646422,315
1686016558.580575,314
1686016558.5937188,315
1686016558.6052408,316
1686016558.6214886,317
1686016558.6344907,316
1686016558.6506522,314
1686016558.6620243,314
1686016558.675246,315
1686016558.691744,317
1686016558.703873,317
1686016558.7161405,316
1686016558.732078,314
1686016558.7445226,315
1686016558.7572408,316
1686016558.7735434,318
1686016558.7861385,317
1686016558.8021069,316
1686016558.8141572,314
1686016558.8271391,315
1686016558.84315,316
1686016558.8554416,317
1686016558.8677475,317
1686016558.8840065,315
1686016558.8960168,314
1686016558.9080062,315
1686016558.9248827,317
1686016558.937143,317
1686016558.949585,316
1686016558.9661498,315
1686016558.978412,314
1686016558.9948356,315
1686016559.0072327,317
1686016559.0193212,317
1686016559.035313,316
1686016559.0477457,314
1686016559.059744,315
1686016559.0757835,316
1686016559.0887845,318
1686016559.1011524,318
1686016559.116838,316
1686016559.1297908,316
1686016559.1457937,316
1686016559.158488,319
1686016559.1705089,320
1686016559.1868212,320
1686016559.1994448,318
1686016559.2118883,317
1686016559.2281482,318
1686016559.2404182,320
1686016559.252431,320
1686016559.2692072,319
1686016559.2810934,318
1686016559.2976055,317
1686016559.3098762,319
1686016559.3221853,321
1686016559.3387823,321
1686016559.3507829,319
1686016559.3627958,317
1686016559.3798003,317
1686016559.3917875,319
1686016559.4041994,320
1686016559.4208422,320
1686016559.4331334,319
1686016559.4447908,319
1686016559.4608183,319
1686016559.4738169,322
1686016559.490115,322
1686016559.502787,322
1686016559.5147998,320
1686016559.531119,320
1686016559.5428472,321
1686016559.5557914,325
1686016559.572792,326
1686016559.5842712,326
1686016559.5967984,325
1686016559.6129045,325
1686016559.6249208,326
1686016559.6418798,327
1686016559.6543202,328
1686016559.666806,326
1686016559.6827888,324
1686016559.6949918,324
1686016559.7070498,326
1686016559.7237856,326
1686016559.7357864,325
1686016559.74821,323
1686016559.7647867,322
1686016559.776789,321
1686016559.7893512,322
1686016559.8057978,323
1686016559.8178413,321
1686016559.834044,319
1686016559.8467886,317
1686016559.859141,318
1686016559.874798,319
1686016559.8868444,319
1686016559.8997865,317
1686016559.915669,315
1686016559.9286637,315
1686016559.9407737,316
1686016559.9572475,318
1686016559.9697976,318
1686016559.9855542,316
1686016559.9981499,316
1686016560.0104873,316
1686016560.0263577,318
1686016560.0393054,319
1686016560.0513089,319
1686016560.0673113,317
1686016560.079937,316
1686016560.092498,317
1686016560.1089199,318
1686016560.1202116,318
1686016560.1373217,313
1686016560.1495476,307
1686016560.1622095,300
1686016560.1783211,296
1686016560.190211,291
1686016560.2032266,286
1686016560.2192063,280
1686016560.231209,277
1686016560.244214,275
1686016560.2602057,276
1686016560.27259,278
1686016560.284502,280
1686016560.301205,279
1686016560.3132126,280
1686016560.329372,283
1686016560.342358,287
1686016560.3540976,293
1686016560.371145,296
1686016560.3831525,299
1686016560.3950918,302
1686016560.4121034,305
1686016560.4240882,308
1686016560.4371026,311
1686016560.4530907,311
1686016560.4650962,310
1686016560.481379,310
1686016560.4934454,312
1686016560.5060847,314
1686016560.5221233,314
1686016560.5341043,312
1686016560.5473824,311
1686016560.563092,311
1686016560.5754757,312
1686016560.5880365,313
1686016560.6043973,313
1686016560.6163266,311
1686016560.6290507,309
1686016560.645031,310
1686016560.6573575,312
1686016560.6740408,314
1686016560.686392,315
1686016560.6980982,317
1686016560.7150347,319
1686016560.726676,326
1686016560.739909,334
1686016560.7559369,342
1686016560.7679298,352
1686016560.7799313,360
1686016560.7970028,370
1686016560.808946,381
1686016560.8253417,391
1686016560.8376725,398
1686016560.8498838,402
1686016560.8665345,404
1686016560.8786101,407
1686016560.8911314,408
1686016560.9076812,409
1686016560.9198375,407
1686016560.93197,401
1686016560.9478455,396
1686016560.9608455,393
1686016560.9768512,387
1686016560.9888906,383
1686016561.0008519,376
1686016561.0179987,368
1686016561.0299006,361
1686016561.0428376,356
1686016561.0588334,352
1686016561.0708992,347
1686016561.0836165,343
1686016561.0998642,336
1686016561.1118977,331
1686016561.1238961,327
1686016561.1408346,325
1686016561.1528416,321
1686016561.168832,317
1686016561.181077,312
1686016561.1937973,309
1686016561.209774,307
1686016561.2227461,306
1686016561.2348056,301
1686016561.2508044,293
1686016561.2637522,285
1686016561.2757642,276
1686016561.2917624,269
1686016561.3047645,260
1686016561.3207612,251
1686016561.3327193,241
1686016561.3457086,234
1686016561.3617668,230
1686016561.3737137,230
1686016561.3867888,231
1686016561.4027672,230
1686016561.4149387,231
1686016561.426843,233
1686016561.4438453,237
1686016561.455843,243
1686016561.4678948,247
1686016561.4842672,250
1686016561.497215,254
1686016561.5132709,258
1686016561.5254877,263
1686016561.5382159,267
1686016561.5542748,271
1686016561.5662658,273
1686016561.579214,277
1686016561.5952287,283
1686016561.6074352,290
1686016561.6194408,297
1686016561.6363947,300
1686016561.6484368,301
1686016561.6649218,303
1686016561.6766186,306
1686016561.6893635,309
1686016561.7053666,311
1686016561.7183666,311
1686016561.7307136,311
1686016561.746367,310
1686016561.7593646,312
1686016561.771398,314
1686016561.7874157,314
1686016561.7999437,313
1686016561.8160527,311
1686016561.8290007,311
1686016561.8410027,313
1686016561.85762,314
1686016561.8699996,314
1686016561.8820553,312
1686016561.8980525,309
1686016561.9110003,307
1686016561.9230042,306
1686016561.939067,305
1686016561.951055,303
1686016561.9639983,301
1686016561.9800546,300
1686016561.9930103,301
1686016562.0090485,303
1686016562.0214233,304
1686016562.033446,304
1686016562.0494432,304
1686016562.0624316,306
1686016562.0744271,308
1686016562.090479,311
1686016562.1034315,313
1686016562.115489,312
1686016562.1320758,311
1686016562.1444292,312
1686016562.1604917,314
1686016562.1724935,316
1686016562.1854284,316
1686016562.2020829,314
1686016562.213797,313
1686016562.2258391,314
1686016562.2427876,316
1686016562.2548192,317
1686016562.26684,316
1686016562.2837863,314
1686016562.2957823,313
1686016562.3078074,314
1686016562.3241084,315
1686016562.33642,316
1686016562.3532956,314
1686016562.3652928,313
1686016562.3773599,312
1686016562.3943534,313
1686016562.4063063,314
1686016562.4183064,314
1686016562.4345238,312
1686016562.4475214,310
1686016562.4595053,310
1686016562.475559,311
1686016562.4885635,312
1686016562.50424,310
1686016562.5169687,308
1686016562.5292933,306
1686016562.54535,306
1686016562.5573084,307
1686016562.570293,307
1686016562.5862968,305
1686016562.598638,303
1686016562.611292,302
1686016562.6273465,302
1686016562.6397421,303
1686016562.6553497,303
1686016562.6683607,301
1686016562.6803024,299
1686016562.697293,298
1686016562.7092915,300
1686016562.7212954,301
1686016562.738303,301
1686016562.7502923,299
1686016562.762304,298
1686016562.7793016,299
1686016562.7912898,301
1686016562.8032908,302
1686016562.8194041,302
1686016562.8326163,300
1686016562.8480206,299
1686016562.860971,300
1686016562.8729851,302
1686016562.8899689,304
1686016562.901966,303
1686016562.9139748,302
1686016562.9304888,302
1686016562.9430757,305
1686016562.9547236,307
1686016562.9709008,308
1686016562.983386,308
1686016562.9998744,306
1686016563.011863,307
1686016563.024472,309
1686016563.0414147,311
1686016563.0534282,312
1686016563.065414,311
1686016563.0824125,310
1686016563.094413,311
1686016563.1064131,313
1686016563.1232696,315
1686016563.1352673,315
1686016563.1472764,314
1686016563.1642702,313
1686016563.1762652,315
1686016563.1924329,317
1686016563.2050261,319
1686016563.2175765,318
1686016563.2335668,317
1686016563.2461162,318
1686016563.2585754,319
1686016563.2745657,321
1686016563.2866313,322
1686016563.2985651,321
1686016563.3155665,320
1686016563.3279786,321
1686016563.3439941,323
1686016563.3560371,325
1686016563.3689861,325
1686016563.3850346,324
1686016563.396996,323
1686016563.4099867,324
1686016563.426039,325
1686016563.4380386,327
1686016563.4509833,326
1686016563.466998,325
1686016563.4789941,324
1686016563.4949806,324
1686016563.5079784,326
1686016563.5200348,327
1686016563.5369933,325
1686016563.549006,323
1686016563.5610344,323
1686016563.5779831,323
1686016563.5899787,324
1686016563.6020374,324
1686016563.6189876,322
1686016563.63045,321
1686016563.6434052,321
1686016563.6594095,322
1686016563.6723979,324
1686016563.6884153,324
1686016563.700447,323
1686016563.7134032,322
1686016563.729406,323
1686016563.7414157,325
1686016563.7534106,326
1686016563.7703972,326
1686016563.782393,324
1686016563.7944486,324
1686016563.8113966,324
1686016563.823691,326
1686016563.8397424,327
1686016563.8517416,326
1686016563.8646843,324
1686016563.8807123,324
1686016563.8926847,325
1686016563.905686,326
1686016563.9216862,326
1686016563.9336867,325
1686016563.9467,323
1686016563.9626837,322
1686016563.9747372,323
1686016563.9907434,324
1686016564.0036898,324
1686016564.0157394,321
1686016564.031754,319
1686016564.044687,318
1686016564.0567565,319
1686016564.0727425,320
1686016564.085685,319
1686016564.0976982,317
1686016564.1136925,316
1686016564.126692,316
1686016564.1386952,318
1686016564.1546981,319
1686016564.1676981,318
1686016564.1840653,316
1686016564.1956823,316
1686016564.2086897,317
1686016564.224826,319
1686016564.237136,320
1686016564.249473,319
1686016564.266214,317
1686016564.2781444,317
1686016564.29015,319
1686016564.3071413,320
1686016564.3192384,321
1686016564.3355532,319
1686016564.347555,318
1686016564.3602302,319
1686016564.376726,321
1686016564.3888774,322
1686016564.4007092,321
1686016564.417129,320
1686016564.4294426,319
1686016564.4422004,320
1686016564.4592304,321
1686016564.470378,322
1686016564.4831676,320
1686016564.4998565,318
1686016564.5118058,317
1686016564.5279164,318
1686016564.5406709,320
1686016564.5528471,320
1686016564.5684977,319
1686016564.581489,318
1686016564.5940058,318
1686016564.6100042,320
1686016564.6220253,321
1686016564.6340673,320
1686016564.6510034,319
1686016564.6630359,317
1686016564.6790545,317
1686016564.6920033,319
1686016564.7040029,320
1686016564.7200723,319
1686016564.7330055,318
1686016564.7450037,317
1686016564.7611895,318
1686016564.7730565,320
1686016564.786002,321
1686016564.8022482,320
1686016564.814075,319
1686016564.8310013,319
1686016564.8430567,321
1686016564.8560123,323
1686016564.8713107,323
1686016564.8842819,322
1686016564.8961678,321
1686016564.913176,321
1686016564.925168,323
1686016564.9372344,324
1686016564.9543262,324
1686016564.966166,323
1686016564.9782279,321
1686016564.994955,322
1686016565.006763,323
1686016565.023713,324
1686016565.0358,323
1686016565.0477836,321
1686016565.0647123,320
1686016565.0767074,321
1686016565.0892274,323
1686016565.1057122,323
1686016565.1177063,323
1686016565.1297815,321
1686016565.146369,320
1686016565.1587348,322
1686016565.1747444,323
1686016565.1873317,323
1686016565.1995595,321
1686016565.2160451,320
1686016565.228292,319
1686016565.2408483,321
1686016565.2571642,322
1686016565.2691743,321
1686016565.2819128,320
1686016565.2979786,319
1686016565.3107262,319
1686016565.3229055,321
1686016565.3388474,322
1686016565.3517957,322
1686016565.3678308,321
1686016565.3799593,321
1686016565.3926628,322
1686016565.4088407,324
1686016565.420752,325
1686016565.4331892,325
1686016565.449828,325
1686016565.4618726,326
1686016565.4737966,329
1686016565.4908035,331
1686016565.5026274,332
1686016565.5194209,330
1686016565.531724,328
1686016565.5436022,326
1686016565.5598557,325
1686016565.5729384,323
1686016565.5845876,320
1686016565.6008375,316
1686016565.6138563,313
1686016565.6261046,311
1686016565.642104,312
1686016565.6541073,312
1686016565.6701102,311
1686016565.6827044,309
1686016565.695795,308
1686016565.7118359,309
1686016565.7238157,311
1686016565.7358177,312
1686016565.752819,311
1686016565.7648165,310
1686016565.7774904,310
1686016565.7938166,312
1686016565.8058162,314
1686016565.8178167,314
1686016565.8348196,313
1686016565.8468175,312
1686016565.8628802,312
1686016565.8758173,314
1686016565.8878164,316
1686016565.9046693,316
1686016565.9165132,314
1686016565.9287047,313
1686016565.9455132,314
1686016565.957511,316
1686016565.9699578,317
1686016565.9865117,316
1686016565.9983552,314
1686016566.013796,313
1686016566.0267997,315
1686016566.0388045,316
1686016566.055796,317
1686016566.067922,316
1686016566.0805027,313
1686016566.0969265,313
1686016566.1093676,315
1686016566.121561,316
1686016566.138117,316
1686016566.150149,314
1686016566.1617572,313
1686016566.1783879,313
1686016566.1911871,314
1686016566.2075336,315
1686016566.2199402,315
1686016566.2321117,313
1686016566.248117,312
1686016566.2602222,313
1686016566.274079,314
1686016566.289035,315
1686016566.302027,314
1686016566.3140879,312
1686016566.330303,311
1686016566.342231,312
1686016566.3590944,314
1686016566.3713539,315
1686016566.383788,314
1686016566.3998153,311
1686016566.41215,311
1686016566.4248996,313
1686016566.4411428,314
1686016566.4531698,314
1686016566.4655323,313
1686016566.4813998,311
1686016566.4934537,311
1686016566.5102267,313
1686016566.5228124,314
1686016566.5348082,314
1686016566.5518749,312
1686016566.5634236,311
1686016566.5754075,312
1686016566.5924075,313
1686016566.6047168,314
1686016566.6171038,314
1686016566.6333625,312
1686016566.645607,311
1686016566.6580853,312
1686016566.674586,314
1686016566.6865966,315
1686016566.702992,313
1686016566.7155805,312
1686016566.7270584,312
1686016566.7440407,314
1686016566.7563803,315
1686016566.7684212,315
1686016566.7846973,313
1686016566.7966409,312
1686016566.8098128,312
1686016566.8253937,314
1686016566.8379388,315
1686016566.8543322,315
1686016566.8672338,313
1686016566.878912,312
1686016566.895591,313
1686016566.9079633,315
1686016566.9199538,316
1686016566.936875,315
1686016566.9484553,313
1686016566.961521,313
1686016566.977157,314
1686016566.9891696,315
1686016567.0021567,316
1686016567.018798,315
1686016567.0303888,313
1686016567.047227,313
1686016567.0588243,314
1686016567.0718637,316
1686016567.087521,316
1686016567.1009007,315
1686016567.1129196,313
1686016567.129364,314
1686016567.1414723,315
1686016567.153667,317
1686016567.170101,316
1686016567.182528,315
1686016567.198244,314
1686016567.2111275,314
1686016567.2234154,316
1686016567.2398682,317
1686016567.2518697,316
1686016567.263947,314
1686016567.280757,314
1686016567.292759,315
1686016567.304811,316
1686016567.3218193,317
1686016567.3335738,315
1686016567.3503585,314
1686016567.362587,314
1686016567.3745756,316
1686016567.3912592,318
1686016567.4037585,317
1686016567.415666,316
1686016567.4317906,315
1686016567.4446347,315
1686016567.4570603,317
1686016567.4731326,318
1686016567.4852633,317
1686016567.4972482,315
1686016567.514173,315
1686016567.5257616,315
1686016567.54286,317
1686016567.5547647,318
1686016567.5674138,316
1686016567.583967,314
1686016567.595433,314
1686016567.6084428,315
1686016567.6249735,316
1686016567.636883,316
1686016567.649207,315
1686016567.6659513,313
1686016567.6775813,313
1686016567.694142,314
1686016567.7067664,316
1686016567.7191882,316
1686016567.7355213,314
1686016567.7475717,313
1686016567.7596889,314
1686016567.7756982,315
1686016567.7887685,316
1686016567.8008156,316
1686016567.8172255,314
1686016567.8292694,313
1686016567.8452675,314
1686016567.8578615,316
1686016567.8704243,317
1686016567.886326,316
1686016567.8990533,314
1686016567.911262,314
1686016567.9276447,315
1686016567.9393451,316
1686016567.9524138,317
1686016567.9688232,315
1686016567.9809785,314
1686016567.9930177,314
1686016568.0095453,315
1686016568.022042,317
1686016568.0380335,317
1686016568.0499187,315
1686016568.0631394,314
1686016568.0788586,314
1686016568.0918863,316
1686016568.1039035,317
1686016568.1199615,316
1686016568.1328819,315
1686016568.1450744,314
1686016568.161216,315
1686016568.1736176,317
1686016568.1897933,317
1686016568.2014172,316
1686016568.2143466,314
1686016568.2311625,314
1686016568.2428875,315
1686016568.2552383,317
1686016568.271658,317
1686016568.2836697,316
1686016568.2964272,314
1686016568.312395,314
1686016568.324714,315
1686016568.341261,317
1686016568.353239,317
1686016568.3652246,315
1686016568.3823438,314
1686016568.394856,315
1686016568.406678,316
1686016568.423505,318
1686016568.4349701,317
1686016568.4479249,315
1686016568.4644003,314
1686016568.4760678,315
1686016568.4891346,317
1686016568.5068564,317
1686016568.5167987,316
1686016568.5337934,315
1686016568.5460384,314
1686016568.5577197,315
1686016568.574804,317
1686016568.5869253,317
1686016568.599401,316
1686016568.6153386,314
1686016568.6282775,314
1686016568.640527,316
1686016568.6576054,317
1686016568.6686864,317
1686016568.6846828,315
1686016568.697515,314
1686016568.710027,314
1686016568.7261648,316
1686016568.7384977,317
1686016568.7503033,316
1686016568.7675903,314
1686016568.7800062,314
1686016568.7920623,314
1686016568.8083308,316
1686016568.8209777,316
1686016568.8328092,315
1686016568.8491356,313
1686016568.8611546,312
1686016568.8778846,313
1686016568.8903754,314
1686016568.9024115,314
1686016568.918625,312
1686016568.931312,311
1686016568.942914,311
1686016568.9601276,312
1686016568.9721847,313
1686016568.9844856,313
1686016569.0007908,311
1686016569.012802,310
1686016569.0295465,310
1686016569.0413737,312
1686016569.053741,313
1686016569.0706244,312
1686016569.082497,310
1686016569.0952785,309
1686016569.1112206,310
1686016569.1248949,311
1686016569.1358979,312
1686016569.152552,310
1686016569.164855,308
1686016569.1811373,307
1686016569.19287,308
1686016569.2048151,309
1686016569.2219703,309
1686016569.2349913,307
1686016569.2464693,305
1686016569.2631657,304
1686016569.2756522,305
1686016569.2874937,306
1686016569.3034904,305
1686016569.3163786,303
1686016569.32847,301
1686016569.3449779,301
1686016569.3565462,302
1686016569.3736327,303
1686016569.3862138,302
1686016569.3982577,300
1686016569.414294,298
1686016569.427022,299
1686016569.439417,300
1686016569.4548213,301
1686016569.4677715,299
1686016569.4800384,298
1686016569.4967208,297
1686016569.5086884,298
1686016569.5248733,299
1686016569.5368423,300
1686016569.550374,298
1686016569.5665772,297
1686016569.5776942,298
1686016569.590356,299
1686016569.6068723,302
1686016569.6192834,302
1686016569.631779,301
1686016569.64814,301
1686016569.6606152,302
1686016569.6724572,305
1686016569.6892374,306
1686016569.7012944,306
1686016569.7175436,305
1686016569.730201,305
1686016569.7417948,307
1686016569.7586238,310
1686016569.7708454,311
1686016569.783146,311
1686016569.799902,310
1686016569.8119066,311
1686016569.8237367,313
1686016569.8403678,315
1686016569.852846,317
1686016569.8692768,316
1686016569.8813438,315
1686016569.8939998,316
1686016569.9098835,318
1686016569.9218946,320
1686016569.9350615,321
1686016569.95089,320
1686016569.9628828,319
1686016569.9758897,320
1686016569.991884,323
1686016570.0044224,325
1686016570.0204,325
1686016570.0334194,325
1686016570.0454109,325
1686016570.0619764,327
1686016570.073983,330
1686016570.0857077,332
1686016570.1022477,333
1686016570.1148207,332
1686016570.1271462,333
1686016570.144305,335
1686016570.1555552,338
1686016570.1679885,340
1686016570.1848133,340
1686016570.1968117,340
1686016570.212602,342
1686016570.2255182,345
1686016570.2378147,348
1686016570.253937,349
1686016570.2658162,349
1686016570.2788215,349
1686016570.2947252,351
1686016570.3077724,353
1686016570.319527,355
1686016570.3355627,355
1686016570.3485537,354
1686016570.3645205,354
1686016570.3767514,355
1686016570.3894231,356
1686016570.4060824,357
1686016570.41763,356
1686016570.429644,355
1686016570.447068,354
1686016570.4589264,355
1686016570.4709697,356
1686016570.4873903,357
1686016570.4994748,355
1686016570.5157309,353
1686016570.5285237,352
1686016570.5405605,352
1686016570.5569038,352
1686016570.5696495,351
1686016570.582188,349
1686016570.598311,347
1686016570.6108463,346
1686016570.6227725,347
1686016570.63928,347
1686016570.6514301,344
1686016570.6640115,340
1686016570.6802742,336
1686016570.6923006,335
1686016570.708349,336
1686016570.7212765,337
1686016570.733272,336
1686016570.749272,333
1686016570.7612717,333
1686016570.7742696,332
1686016570.7906008,333
1686016570.8022747,332
1686016570.8152907,329
1686016570.8312914,327
1686016570.8432746,325
1686016570.8603535,326
1686016570.873276,326
1686016570.8852754,324
1686016570.9016678,322
1686016570.913631,320
1686016570.9252753,319
1686016570.9423463,319
1686016570.9543588,319
1686016570.966552,318
1686016570.983364,315
1686016570.9954576,314
1686016571.0072758,314
1686016571.0242822,315
1686016571.0362735,315
1686016571.0526361,313
1686016571.0652719,311
1686016571.0772743,310
1686016571.0936465,311
1686016571.1062791,312
1686016571.1184402,312
1686016571.134271,310
1686016571.1472752,309
1686016571.1593506,309
1686016571.1759026,311
1686016571.1878998,312
1686016571.2039502,312
1686016571.216063,310
1686016571.2290993,309
1686016571.2451138,310
1686016571.2580488,312
1686016571.2701201,312
1686016571.2861056,311
1686016571.2983797,310
1686016571.3111756,309
1686016571.3272188,310
1686016571.3392348,312
1686016571.3512197,312
1686016571.3682165,311
1686016571.380588,310
1686016571.3962777,311
1686016571.4092195,314
1686016571.4215524,317
1686016571.4375749,319
1686016571.4502058,319
1686016571.462723,320
1686016571.4792132,321
1686016571.49133,323
1686016571.503097,323
1686016571.5194674,320
1686016571.531834,314
1686016571.5484543,305
1686016571.5604582,299
1686016571.5734582,294
1686016571.5894594,289
1686016571.6014562,283
1686016571.6137764,277
1686016571.6306257,274
1686016571.6419973,273
1686016571.65498,274
1686016571.671302,275
1686016571.6834922,274
1686016571.7000349,274
1686016571.7119174,275
1686016571.7246776,277
1686016571.740281,281
1686016571.7532558,283
1686016571.765266,283
1686016571.7812648,284
1686016571.7944713,286
1686016571.8063447,289
1686016571.823269,292
1686016571.8349721,293
1686016571.8474827,294
1686016571.8634253,296
1686016571.8764143,298
1686016571.8924565,303
1686016571.9049125,307
1686016571.9172957,308
1686016571.93317,309
1686016571.9459186,309
1686016571.9580214,311
1686016571.9744482,312
1686016571.9868362,313
1686016571.9991572,312
1686016572.0151606,309
1686016572.027854,308
1686016572.044045,309
1686016572.0558228,310
1686016572.068823,309
1686016572.084831,308
1686016572.096885,305
1686016572.1098232,305
1686016572.1258209,306
1686016572.1389077,307
1686016572.1508389,305
1686016572.166695,304
1686016572.1789217,302
1686016572.1916459,303
1686016572.207644,304
1686016572.2204025,305
1686016572.236718,303
1686016572.2487185,302
1686016572.2607732,302
1686016572.2777178,304
1686016572.2897213,307
1686016572.3020253,309
1686016572.3187242,311
1686016572.3307164,312
1686016572.3427174,317
1686016572.3595724,323
1686016572.3714023,328
1686016572.3883407,333
1686016572.4003377,337
1686016572.412872,341
1686016572.4293003,347
1686016572.4413776,353
1686016572.4543002,359
1686016572.4702957,363
1686016572.4824002,366
1686016572.4942982,369
1686016572.5113025,375
1686016572.5232992,380
1686016572.5393565,382
1686016572.5513668,382
1686016572.5643787,380
1686016572.580296,378
1686016572.5933225,379
1686016572.6055646,378
1686016572.6217742,375
1686016572.6337848,371
1686016572.64613,364
1686016572.6627722,360
1686016572.6748366,357
1686016572.6871102,354
1686016572.7037706,350
1686016572.7157748,344
1686016572.7320755,339
1686016572.744725,335
1686016572.7567968,334
1686016572.7727265,331
1686016572.7850852,328
1686016572.7987936,323
1686016572.8140492,319
1686016572.826329,318
1686016572.8381906,317
1686016572.855197,316
1686016572.867194,312
1686016572.8835886,307
1686016572.8962162,302
1686016572.9082124,296
1686016572.9245753,292
1686016572.9371972,287
1686016572.9492726,281
1686016572.9651926,276
1686016572.9781964,273
1686016572.9901936,271
1686016573.0067496,269
1686016573.0191977,266
1686016573.0351403,259
1686016573.0472906,254
1686016573.0599818,251
1686016573.07626,251
1686016573.0879712,250
1686016573.1010463,250
1686016573.116985,249
1686016573.1289992,249
1686016573.1419861,250
1686016573.1589954,252
1686016573.1700227,255
1686016573.1829643,256
1686016573.1989632,257
1686016573.211558,260
1686016573.2271802,264
1686016573.2401676,269
1686016573.252458,272
1686016573.2682176,274
1686016573.281163,275
1686016573.2932644,279
1686016573.309221,285
1686016573.322166,290
1686016573.3342159,294
1686016573.3501654,297
1686016573.3631644,301
1686016573.378956,305
1686016573.391872,312
1686016573.4038696,317
1686016573.4199429,319
1686016573.4328704,320
1686016573.4448674,320
1686016573.4608727,321
1686016573.472929,323
1686016573.4859402,324
1686016573.502175,323
1686016573.5141904,321
1686016573.5268693,321
1686016573.543092,321
1686016573.554923,323
1686016573.5719533,322
1686016573.584133,321
1686016573.5958738,319
1686016573.612867,319
1686016573.6249313,320
1686016573.637185,320
1686016573.6538715,319
1686016573.6661355,315
1686016573.6782036,310
1686016573.6949518,308
1686016573.7068794,307
1686016573.7231607,306
1686016573.7356212,305
1686016573.7483015,303
1686016573.764367,302
1686016573.7765706,303
1686016573.7893066,305
1686016573.805352,306
1686016573.8183005,306
1686016573.829567,306
1686016573.8462405,306
1686016573.8582444,309
1686016573.8746235,312
1686016573.8872428,315
1686016573.8994675,317
1686016573.9162636,317
1686016573.9282424,319
1686016573.9397936,322
1686016573.95725,325
1686016573.9692445,326
1686016573.98135,325
1686016573.9976208,324
1686016574.0102816,325
1686016574.0222838,327
1686016574.0383492,329
1686016574.0513687,328
1686016574.0673525,326
1686016574.0793524,326
1686016574.091662,326
1686016574.108255,327
1686016574.1207623,328
1686016574.133312,327
1686016574.1493049,325
1686016574.1615694,324
1686016574.173331,325
1686016574.190526,326
1686016574.2023437,326
1686016574.2180672,325
1686016574.2315717,323
1686016574.2434976,323
1686016574.260034,324
1686016574.2720566,325
1686016574.2840354,324
1686016574.301029,322
1686016574.313177,321
1686016574.3251667,320
1686016574.3421714,321
1686016574.3542397,322
1686016574.3661706,321
1686016574.3825502,319
1686016574.3951695,318
1686016574.4111679,319
1686016574.4231699,320
1686016574.4363225,320
1686016574.4523187,319
1686016574.4646347,317
1686016574.4770193,316
1686016574.4927945,318
1686016574.5053277,319
1686016574.5178382,319
1686016574.5343692,318
1686016574.5464265,316
1686016574.5630367,316
1686016574.5751724,317
1686016574.5878615,318
1686016574.6040454,317
1686016574.6161687,315
1686016574.6288471,313
1686016574.6449182,313
1686016574.6569471,315
1686016574.6691082,316
1686016574.6858375,315
1686016574.6981523,313
1686016574.7141898,313
1686016574.7268407,313
1686016574.7388232,314
1686016574.7556484,315
1686016574.7679229,313
1686016574.7798648,311
1686016574.7961602,310
1686016574.8089051,311
1686016574.8210206,312
1686016574.8370874,312
1686016574.8494332,311
1686016574.8620906,309
1686016574.8780932,309
1686016574.8904521,310
1686016574.9070907,311
1686016574.9191525,311
1686016574.9310892,309
1686016574.948121,308
1686016574.960259,308
1686016574.9730275,309
1686016574.989038,308
1686016575.0012991,306
1686016575.013499,303
1686016575.030019,302
1686016575.0422103,303
1686016575.0579836,305
1686016575.0709355,306
1686016575.083143,305
1686016575.0992663,303
1686016575.1119382,303
1686016575.1239378,305
1686016575.1405165,307
1686016575.1525419,307
1686016575.1652045,307
1686016575.1815324,307
1686016575.1942046,309
1686016575.2096834,312
1686016575.222729,314
1686016575.2347333,315
1686016575.2512362,314
1686016575.263382,313
1686016575.2752857,313
1686016575.292235,315
1686016575.3042152,316
1686016575.3165295,315
1686016575.3332195,313
1686016575.345221,312
1686016575.3575344,313
1686016575.37422,315
1686016575.3862147,315
1686016575.402267,314
1686016575.4152195,313
1686016575.426905,312
1686016575.4439578,313
1686016575.4560153,315
1686016575.4682178,315
1686016575.4849384,314
1686016575.496939,313
1686016575.5091932,312
1686016575.5249965,314
1686016575.537494,315
1686016575.5543892,315
1686016575.5663834,314
1686016575.5787437,312
1686016575.5954547,313
1686016575.6074617,315
1686016575.619495,316
1686016575.6358147,315
1686016575.6484747,313
1686016575.6610506,312
1686016575.6770973,311
1686016575.689002,311
1686016575.7010632,311
1686016575.7179997,309
1686016575.7299974,307
1686016575.7460492,307
1686016575.7590005,308
1686016575.7710035,310
1686016575.787103,311
1686016575.8000085,310
1686016575.812056,309
1686016575.8279946,309
1686016575.841001,311
1686016575.8530114,312
1686016575.8690174,312
1686016575.882081,311
1686016575.8980215,311
1686016575.9110122,312
1686016575.9221978,314
1686016575.9395566,315
1686016575.9515605,315
1686016575.96357,314
1686016575.9805527,314
1686016575.992627,315
1686016576.0048113,317
1686016576.0206244,318
1686016576.033631,318
1686016576.0496182,316
1686016576.0622349,316
1686016576.0739594,318
1686016576.0910468,320
1686016576.103197,320
1686016576.115725,319
1686016576.1313462,318
1686016576.1434515,318
1686016576.1563137,320
1686016576.1726649,321
1686016576.1847076,321
1686016576.1977186,319
1686016576.2131677,318
1686016576.226125,319
1686016576.242318,320
1686016576.2540698,322
1686016576.26695,320
1686016576.2830057,319
1686016576.2958505,318
1686016576.308326,319
1686016576.3242595,320
1686016576.3366776,321
1686016576.3486772,320
1686016576.3658347,318
1686016576.3776984,317
1686016576.3936932,318
1686016576.4062057,320
1686016576.4180932,320
1686016576.4351873,318
1686016576.4472275,317
1686016576.4590986,317
1686016576.4751933,318
1686016576.4883218,319
1686016576.500436,319
1686016576.5167341,317
1686016576.5297172,316
1686016576.5409622,316
1686016576.5579607,318
1686016576.5699673,319
1686016576.585965,318
1686016576.5979533,316
1686016576.610961,316
1686016576.626954,316
1686016576.6392107,318
1686016576.6519673,318
1686016576.668009,317
1686016576.6800177,315
1686016576.6920204,315
1686016576.7089596,316
1686016576.7209587,318
1686016576.7376773,317
1686016576.749682,316
1686016576.7626917,314
1686016576.7783961,315
1686016576.7906609,316
1686016576.804241,318
1686016576.8201087,317
1686016576.83184,316
1686016576.8441415,315
1686016576.8609228,315
1686016576.8725424,317
1686016576.8884678,318
1686016576.9019237,317
1686016576.9142175,315
1686016576.9306736,314
1686016576.9430556,315
1686016576.9547677,317
1686016576.9715014,317
1686016576.9835103,316
1686016576.9954255,314
1686016577.0122972,314
1686016577.0246356,315
1686016577.03672,317
1686016577.0527844,317
1686016577.0656936,316
1686016577.0818827,314
1686016577.093947,315
1686016577.1064708,317
1686016577.1227949,320
1686016577.1352494,322
1686016577.1478457,321
1686016577.1636462,321
1686016577.1763325,322
1686016577.1883266,324
1686016577.2046149,326
1686016577.21707,325
1686016577.2327547,324
1686016577.2454493,324
1686016577.2574105,326
1686016577.2741146,328
1686016577.2866504,330
1686016577.2992337,329
1686016577.315032,328
1686016577.32697,327
1686016577.340121,328
1686016577.3565366,329
1686016577.367879,328
1686016577.3810425,325
1686016577.3966603,322
1686016577.409683,321
1686016577.4260974,322
1686016577.4383388,322
1686016577.4504974,320
1686016577.4665546,318
1686016577.4788377,316
1686016577.4918172,316
1686016577.5076244,317
1686016577.5197215,317
1686016577.5328755,315
1686016577.5494776,313
1686016577.5604737,312
1686016577.5779026,312
1686016577.589967,313
1686016577.6022303,313
1686016577.6180353,312
1686016577.6306565,310
1686016577.6431882,309
1686016577.6598473,310
1686016577.671784,311
1686016577.6836004,311
1686016577.7004356,309
1686016577.7130842,308
1686016577.7289143,307
1686016577.7413113,309
1686016577.7532687,310
1686016577.7698867,309
1686016577.781934,307
1686016577.7939482,306
1686016577.8111215,307
1686016577.82362,309
1686016577.8356063,309
1686016577.8512676,308
1686016577.8643446,307
1686016577.8763006,306
1686016577.8932178,307
1686016577.9049613,309
1686016577.921648,309
1686016577.9334772,309
1686016577.9455373,308
1686016577.9627366,308
1686016577.974993,310
1686016577.9874914,312
1686016578.0034897,312
1686016578.0159264,311
1686016578.0282125,309
1686016578.0448546,310
1686016578.0570803,312
1686016578.0730796,313
1686016578.085853,312
1686016578.097252,310
1686016578.1140764,309
1686016578.1265457,309
1686016578.138793,311
1686016578.1550026,311
1686016578.167282,310
1686016578.1799107,308
1686016578.1959448,307
1686016578.2085664,308
1686016578.224351,309
1686016578.2371438,309
1686016578.249398,308
1686016578.265965,306
1686016578.2779367,306
1686016578.2904685,308
1686016578.3069246,309
1686016578.3192546,309
1686016578.33131,308
1686016578.3472617,306
1686016578.3595986,307
1686016578.371899,309
1686016578.3880503,310
1686016578.4011583,310
1686016578.416968,308
1686016578.4295492,308
1686016578.4419763,309
1686016578.458245,311
1686016578.4699154,312
1686016578.4829183,310
1686016578.4991832,305
1686016578.5114634,302
1686016578.5235064,301
1686016578.5408,302
1686016578.5525558,302
1686016578.5680776,301
1686016578.5810792,300
1686016578.5933816,301
1686016578.609438,303
1686016578.6214747,305
1686016578.6345158,306
1686016578.6510172,304
1686016578.6631908,304
1686016578.675173,304
1686016578.6920009,306
1686016578.7040029,308
1686016578.7158058,308
1686016578.7326047,307
1686016578.7448344,307
1686016578.7614474,308
1686016578.7738514,311
1686016578.785835,313
1686016578.8029232,312
1686016578.8141155,311
1686016578.82711,311
1686016578.843224,313
1686016578.8555338,316
1686016578.8676877,316
1686016578.8842337,316
1686016578.896274,315
1686016578.9123294,315
1686016578.9245455,317
1686016578.9369202,319
1686016578.9537022,319
1686016578.965734,318
1686016578.9784527,317
1686016578.994472,317
1686016579.006542,319
1686016579.0195885,320
1686016579.0356197,320
1686016579.0481298,318
1686016579.0640008,317
1686016579.0766392,319
1686016579.088626,320
1686016579.1045008,321
1686016579.117977,320
1686016579.1302836,318
1686016579.14602,318
1686016579.1583378,319
1686016579.1710813,321
1686016579.1872864,321
1686016579.1993866,320
1686016579.2118077,319
1686016579.2282407,319
1686016579.2397664,320
1686016579.2571666,322
1686016579.2689006,322
1686016579.2815328,321
1686016579.2978141,319
1686016579.309957,320
1686016579.3228989,321
1686016579.3390791,323
1686016579.3511014,322
1686016579.363108,320
1686016579.3790517,319
1686016579.392194,321
1686016579.4084337,322
1686016579.4205902,323
1686016579.4322882,321
1686016579.4493372,320
1686016579.461698,319
1686016579.4739056,320
1686016579.4898658,322
1686016579.5025675,323
1686016579.5151436,321
1686016579.5313063,320
1686016579.5432909,320
1686016579.5553389,321
1686016579.5718858,322
1686016579.5846658,322
1686016579.6006942,320
1686016579.6126115,319
1686016579.6257825,319
1686016579.6413817,321
1686016579.6538303,322
1686016579.6660154,321
1686016579.682789,320
1686016579.6952069,319
1686016579.7075472,319
1686016579.7232604,321
1686016579.7361968,322
1686016579.7521937,320
1686016579.7648268,319
1686016579.776965,318
1686016579.7930493,319
1686016579.8053443,321
1686016579.8182914,321
1686016579.8344705,320
1686016579.84682,318
1686016579.8583913,318
1686016579.8754237,319
1686016579.8869927,321
1686016579.9037354,320
1686016579.91633,319
1686016579.9279592,318
1686016579.9446366,318
1686016579.957415,320
1686016579.9695663,321
1686016579.9857376,320
1686016579.9983442,319
1686016580.0102096,318
1686016580.0281866,318
1686016580.0391855,320
1686016580.051709,321
1686016580.068014,319
1686016580.0803213,318
1686016580.0962186,317
1686016580.1090298,318
1686016580.1213253,320
1686016580.1370764,320
1686016580.1493366,318
1686016580.1621675,316
1686016580.178217,316
1686016580.191091,318
1686016580.203057,319
1686016580.2190988,318
1686016580.2309535,316
1686016580.248152,315
1686016580.2599692,316
1686016580.2723932,317
1686016580.2889013,318
1686016580.3016546,317
1686016580.3132548,315
1686016580.3300362,315
1686016580.3427677,316
1686016580.3541224,317
1686016580.371112,318
1686016580.3833354,316
1686016580.3999898,315
1686016580.4118133,314
1686016580.4242513,316
1686016580.4409351,317
1686016580.4528356,317
1686016580.4647007,316
1686016580.4814558,314
1686016580.4934034,315
1686016580.5061646,316
1686016580.5224257,317
1686016580.534855,317
1686016580.54691,315
1686016580.563466,314
1686016580.575464,315
1686016580.5923924,316
1686016580.6046252,317
1686016580.6170578,316
1686016580.6327503,314
1686016580.645059,314
1686016580.6580098,315
1686016580.6738954,316
1686016580.6859517,317
1686016580.6981328,316
1686016580.7150264,314
1686016580.7270665,313
1686016580.7430723,315
1686016580.7561753,317
1686016580.7685049,317
1686016580.7846725,315
1686016580.796701,314
1686016580.8093286,313
1686016580.8255837,315
1686016580.8377886,316
1686016580.8502603,316
1686016580.8660557,314
1686016580.8780618,313
1686016580.8948762,314
1686016580.9076705,316
1686016580.9197063,316
1686016580.9358385,315
1686016580.9478426,314
1686016580.9608717,313
1686016580.9767451,314
1686016580.9894385,316
1686016581.0012934,316
1686016581.0181544,315
1686016581.0304518,314
1686016581.0421417,313
1686016581.059443,314
1686016581.07131,316
1686016581.0869396,315
1686016581.0999334,314
1686016581.112023,312
1686016581.1280565,312
1686016581.140993,314
1686016581.153026,315
1686016581.1693854,314
1686016581.182074,313
1686016581.1942267,311
1686016581.2108068,312
1686016581.223187,314
1686016581.2389905,316
1686016581.2514367,315
1686016581.2641244,313
1686016581.2802556,312
1686016581.2921472,314
1686016581.3045096,315
1686016581.3204408,316
1686016581.3338227,315
1686016581.3450646,313
1686016581.3622732,313
1686016581.3742323,314
1686016581.385886,316
1686016581.4029937,316
1686016581.4155536,314
1686016581.4309897,313
1686016581.4439843,313
1686016581.4563394,315
1686016581.4727705,316
1686016581.485398,316
1686016581.4973853,314
1686016581.5138817,313
1686016581.5265703,314
1686016581.5379927,316
1686016581.5548682,317
1686016581.5672092,316
1686016581.5829754,314
1686016581.5955312,313
1686016581.60794,314
1686016581.6242769,316
1686016581.6360395,317
1686016581.6483147,315
1686016581.6654165,313
1686016581.6774383,313
1686016581.6901724,314
1686016581.7061894,316
1686016581.7181494,316
1686016581.7341015,314
1686016581.7473176,312
1686016581.7598045,313
1686016581.7755044,314
1686016581.788058,315
1686016581.8006947,315
1686016581.816638,313
1686016581.8288887,312
1686016581.8409436,312
1686016581.8580241,314
1686016581.8701103,315
1686016581.8822658,314
1686016581.8986628,311
1686016581.910698,311
1686016581.9274364,312
1686016581.9389122,314
1686016581.9520452,314
1686016581.9685953,313
1686016581.9806912,312
1686016581.9930542,312
1686016582.0090947,314
1686016582.022102,315
1686016582.0340576,315
1686016582.050352,314
1686016582.0619304,313
1686016582.0791724,313
1686016582.0910802,315
1686016582.1029282,316
1686016582.1199937,316
1686016582.1321578,314
1686016582.1443088,313
1686016582.1609342,314
1686016582.1731398,316
1686016582.1851804,316
1686016582.2011836,315
1686016582.2137198,313
1686016582.2263997,313
1686016582.2424078,314
1686016582.2552593,316
1686016582.2712612,316
1686016582.2833135,315
1686016582.2955806,314
1686016582.3123405,313
1686016582.3245933,315
1686016582.336579,316
1686016582.3535283,316
1686016582.3656251,315
1686016582.3780234,313
1686016582.3938646,314
1686016582.4068658,316
1686016582.4228606,317
1686016582.4355154,317
1686016582.4471076,315
1686016582.4634752,314
1686016582.4762986,315
1686016582.4885626,317
1686016582.5044305,318
1686016582.517221,317
1686016582.5294864,315
1686016582.5454855,315
1686016582.5576274,316
1686016582.57417,318
1686016582.587123,318
1686016582.5991924,316
1686016582.6151779,315
1686016582.6271937,315
1686016582.6401806,316
1686016582.6563768,317
1686016582.6689544,317
1686016582.6807485,316
1686016582.6974437,315
1686016582.7094367,316
1686016582.721448,318
1686016582.7383757,319
1686016582.7503767,319
1686016582.766737,317
1686016582.7786686,317
1686016582.791728,318
1686016582.8079622,320
1686016582.819733,323
1686016582.8327487,322
1686016582.84934,322
1686016582.8616061,325
1686016582.8736358,329
1686016582.889857,333
1686016582.9015174,335
1686016582.9186366,335
1686016582.9305308,335
1686016582.9428933,336
1686016582.95958,339
1686016582.9715805,341
1686016582.9845202,342
1686016583.0005994,341
1686016583.0128798,341
1686016583.0245137,341
1686016583.0417135,342
1686016583.0538635,341
1686016583.0698316,336
1686016583.0825202,329
1686016583.0947294,320
1686016583.1105661,313
1686016583.1235876,306
1686016583.135515,300
1686016583.1515102,292
1686016583.1645417,285
1686016583.1765993,280
1686016583.1928687,279
1686016583.2055192,278
1686016583.217515,278
1686016583.2339084,276
1686016583.2465174,276
1686016583.2619853,277
1686016583.2750444,280
1686016583.2871747,283
1686016583.3033469,284
1686016583.315994,285
1686016583.3280694,286
1686016583.3439732,290
1686016583.357045,294
1686016583.3689935,297
1686016583.3849833,299
1686016583.3979716,300
1686016583.4139874,303
1686016583.4259734,307
1686016583.4390392,311
1686016583.454977,313
1686016583.4670434,312
1686016583.4799156,311
1686016583.4959145,311
1686016583.5082414,313
1686016583.5208685,315
1686016583.537002,314
1686016583.5488524,311
1686016583.5614395,309
1686016583.5780032,310
1686016583.590143,312
1686016583.6068828,314
1686016583.6190755,314
1686016583.630878,314
1686016583.646955,313
1686016583.6594017,315
1686016583.6724544,317
1686016583.6884058,317
1686016583.7004528,317
1686016583.713408,315
1686016583.7297506,314
1686016583.741454,315
1686016583.7577164,316
1686016583.7704115,318
1686016583.7823896,318
1686016583.7990913,318
1686016583.811442,323
1686016583.8234746,331
1686016583.840158,338
1686016583.8522503,344
1686016583.864019,348
1686016583.8812397,353
1686016583.8939276,359
1686016583.9092536,368
1686016583.9219322,375
1686016583.9339263,379
1686016583.9509404,381
1686016583.963005,383
1686016583.975183,385
1686016583.991993,389
1686016584.0040076,390
1686016584.0162199,389
1686016584.032996,386
1686016584.0450058,385
1686016584.05693,385
1686016584.0732653,384
1686016584.0861495,382
1686016584.1019852,379
1686016584.1139293,374
1686016584.1269982,369
1686016584.1429935,367
1686016584.1552024,366
1686016584.1679213,360
1686016584.183927,355
1686016584.1962042,349
1686016584.2089276,345
1686016584.224932,342
1686016584.236992,340
1686016584.2529879,335
1686016584.266004,330
1686016584.2779624,325
1686016584.2949283,324
1686016584.3070118,323
1686016584.3190086,322
1686016584.3359497,318
1686016584.3482156,314
1686016584.360252,312
1686016584.3769891,311
1686016584.3889341,313
1686016584.4013405,311
1686016584.4178686,309
1686016584.4298215,305
1686016584.445823,304
1686016584.4588416,304
1686016584.4708214,305
1686016584.4868777,304
1686016584.4998338,301
1686016584.512129,297
1686016584.52811,297
1686016584.5400906,298
1686016584.5528963,298
1686016584.5688863,296
1686016584.5810635,292
1686016584.597732,287
1686016584.6095028,283
1686016584.6225069,279
1686016584.638503,273
1686016584.6505232,264
1686016584.6635053,255
1686016584.6795642,248
1686016584.6925673,242
1686016584.7043424,239
1686016584.7202342,237
1686016584.7332892,235
1686016584.7485952,234
1686016584.7612405,234
1686016584.7742934,237
1686016584.790235,240
1686016584.8022356,242
1686016584.8153472,243
1686016584.8313503,245
1686016584.8442783,249
1686016584.856019,254
1686016584.8716776,259
1686016584.8846798,262
1686016584.8966212,264
1686016584.9126215,267
1686016584.925683,272
1686016584.9419107,277
1686016584.9536803,283
1686016584.966051,287
1686016584.9829895,289
1686016584.995076,292
1686016585.0070982,297
1686016585.024067,302
1686016585.036124,305
1686016585.0483103,306
1686016585.0649903,307
1686016585.0769932,310
1686016585.0929852,313
1686016585.1057606,316
1686016585.1179829,316
1686016585.1339135,315
1686016585.146948,314
1686016585.1589608,315
1686016585.1751587,317
1686016585.18709,318
1686016585.1995327,317
1686016585.2165365,315
1686016585.2285712,314
1686016585.2405345,314
1686016585.2572613,316
1686016585.2692893,317
1686016585.2852836,315
1686016585.2984936,312
1686016585.3105721,310
1686016585.3265178,310
1686016585.3397377,310
1686016585.351596,309
1686016585.3675008,307
1686016585.3795779,305
1686016585.3924937,305
1686016585.408832,307
1686016585.420494,309
1686016585.437345,309
1686016585.4495575,309
1686016585.462083,309
1686016585.4781709,310
1686016585.490415,314
1686016585.503164,316
1686016585.5190942,316
1686016585.5315523,316
1686016585.5437212,316
1686016585.560588,317
1686016585.572693,320
1686016585.5886166,321
1686016585.6006744,320
1686016585.6137002,318
1686016585.6301985,318
1686016585.6426177,319
1686016585.6546757,321
1686016585.6709623,321
1686016585.6836662,319
1686016585.6956828,318
1686016585.7116768,318
1686016585.7243097,319
1686016585.7363682,319
1686016585.7523534,319
1686016585.7654328,317
1686016585.7816672,316
1686016585.7934136,316
1686016585.8054245,318
1686016585.8223603,319
1686016585.8346596,318
1686016585.8474274,316
1686016585.8637855,315
1686016585.8758411,316
1686016585.8878515,318
1686016585.904112,319
1686016585.9178166,318
1686016585.9327912,316
1686016585.9451513,316
1686016585.957804,317
1686016585.9740353,318
1686016585.9867241,319
1686016585.9987113,317
1686016586.0147243,315
1686016586.0270772,316
1686016586.0397143,317
1686016586.05607,319
1686016586.0680366,318
1686016586.0840046,317
1686016586.0967817,316
1686016586.1089985,317
1686016586.1257198,318
1686016586.1379511,319
1686016586.1498137,318
1686016586.166713,317
1686016586.1789424,316
1686016586.1910691,317
1686016586.2077935,318
1686016586.219726,319
1686016586.2317252,318
1686016586.2487903,316
1686016586.260721,316
1686016586.2774653,317
1686016586.289512,319
1686016586.3015711,319
1686016586.3184376,317
1686016586.3305182,316
1686016586.3427746,316
1686016586.3594654,318
1686016586.3713298,319
1686016586.3833852,319
1686016586.4001436,317
1686016586.4125385,316
1686016586.4284961,316
1686016586.4412186,318
1686016586.4531462,319
1686016586.4697354,317
1686016586.4819052,316
1686016586.494117,315
1686016586.5104632,316
1686016586.52295,318
1686016586.5349562,318
1686016586.5516787,317
1686016586.563651,315
1686016586.5766976,315
1686016586.5926287,317
1686016586.6046276,319
1686016586.620682,318
1686016586.6336453,317
1686016586.6457508,315
1686016586.6616988,316
1686016586.6746507,318
1686016586.6866286,319
1686016586.7029996,318
1686016586.7156963,316
1686016586.7278888,315
1686016586.7441454,316
1686016586.756214,318
1686016586.7719862,320
1686016586.784819,319
1686016586.7971182,318
1686016586.8138716,317
1686016586.8260229,319
1686016586.8388038,320
1686016586.8548229,321
1686016586.867066,320
1686016586.8792655,318
1686016586.8955266,318
1686016586.9081855,320
1686016586.9232442,321
1686016586.9365284,321
1686016586.9491858,319
1686016586.9652114,318
1686016586.9775343,318
1686016586.9892561,320
1686016587.0061815,321
1686016587.0182412,320
1686016587.031203,318
1686016587.0475612,318
1686016587.059241,319
1686016587.0718312,320
1686016587.08804,321
1686016587.100773,320
1686016587.1167743,318
1686016587.1287289,318
1686016587.141714,319
1686016587.1577365,320
1686016587.1694756,320
1686016587.182417,319
1686016587.1984875,317
1686016587.2108877,317
1686016587.223476,319
1686016587.239426,320
1686016587.2514145,320
1686016587.2677507,318
1686016587.280685,317
1686016587.2926846,318
1686016587.3087447,319
1686016587.3215585,321
1686016587.3336844,319
1686016587.3496838,317
1686016587.3627558,316
1686016587.3746963,317
1686016587.3906896,318
1686016587.403319,319
1686016587.4200637,317
1686016587.4319866,315
1686016587.4443069,315
1686016587.4610043,316
1686016587.4727843,318
1686016587.485292,319
1686016587.5018518,317
1686016587.5148728,316
1686016587.526502,316
1686016587.542588,318
1686016587.554822,320
1686016587.567302,320
1686016587.583499,318
1686016587.5957696,317
1686016587.6115453,317
1686016587.6244845,319
1686016587.6365542,320
1686016587.6535532,319
1686016587.665739,317
1686016587.6780784,316
1686016587.6950674,317
1686016587.7061043,319
1686016587.7186332,319
1686016587.7352152,318
1686016587.7469807,316
1686016587.7629673,316
1686016587.7764142,317
1686016587.7886477,319
1686016587.8052077,319
1686016587.817134,317
1686016587.8291311,316
1686016587.8451962,316
1686016587.8582532,318
1686016587.8702974,319
1686016587.8872125,319
1686016587.899363,317
1686016587.9108505,316
1686016587.9279482,317
1686016587.939528,318
1686016587.9565425,319
1686016587.968453,318
1686016587.980463,317
1686016587.996955,316
1686016588.0099084,317
1686016588.0222273,318
1686016588.0385473,319
1686016588.0505943,317
1686016588.0626578,316
1686016588.079331,315
1686016588.091733,317
1686016588.1077404,319
1686016588.119784,319
1686016588.1327293,317
1686016588.1487265,316
1686016588.160735,316
1686016588.1727407,318
1686016588.1899436,319
1686016588.2017934,319
1686016588.2147255,317
1686016588.2307262,316
1686016588.242926,316
1686016588.2587888,318
1686016588.2715087,319
1686016588.2841432,318
1686016588.3001444,316
1686016588.3126743,316
1686016588.3246713,317
1686016588.3417654,318
1686016588.3540468,319
1686016588.3658404,318
1686016588.3819313,316
1686016588.3948846,316
1686016588.4071093,318
1686016588.4231575,319
1686016588.4351623,319
1686016588.4521503,318
1686016588.4642813,316
1686016588.4766614,316
1686016588.492509,318
1686016588.5050952,319
1686016588.5178587,318
1686016588.5341444,316
1686016588.5464144,315
1686016588.558738,316
1686016588.5743933,318
1686016588.5874076,319
1686016588.6030822,317
1686016588.6156917,315
1686016588.6285071,315
1686016588.6444883,316
1686016588.656806,317
1686016588.6691077,318
1686016588.685905,316
1686016588.6972725,315
1686016588.7100863,314
1686016588.7257862,316
1686016588.7396855,318
1686016588.7507365,318
1686016588.7677383,316
1686016588.780021,315
1686016588.7957497,316
1686016588.8085542,319
1686016588.8210053,321
1686016588.8374088,321
1686016588.8494174,322
1686016588.8620076,324
1686016588.87819,329
1686016588.890233,335
1686016588.9028656,339
1686016588.9192305,342
1686016588.9310648,342
1686016588.9473104,342
1686016588.9602222,343
1686016588.972718,343
1686016588.9879665,341
1686016589.0011036,337
1686016589.0135965,332
1686016589.029639,329
1686016589.0421226,327
1686016589.0541668,325
1686016589.0700731,321
1686016589.0823152,316
1686016589.0983462,311
1686016589.1112854,310
1686016589.1233072,310
1686016589.140287,310
1686016589.1522965,308
1686016589.1644287,305
1686016589.1812904,304
1686016589.1932855,305
1686016589.20535,306
1686016589.2213426,307
1686016589.2342913,306
1686016589.2463489,305
1686016589.2629807,304
1686016589.2744727,306
1686016589.291471,308
1686016589.3035264,308
1686016589.31547,307
1686016589.3328767,305
1686016589.3446221,306
1686016589.3572807,308
1686016589.373937,309
1686016589.3862352,310
1686016589.3979912,308
1686016589.4140623,308
1686016589.4267905,308
1686016589.4435036,310
1686016589.455358,312
1686016589.4681175,312
1686016589.4840727,310
1686016589.4967775,310
1686016589.5090184,311
1686016589.5248382,312
1686016589.5371659,313
1686016589.5498967,312
1686016589.5660558,310
1686016589.578741,310
1686016589.591179,311
1686016589.6068308,313
1686016589.6194048,313
1686016589.6357772,312
1686016589.648775,311
1686016589.6603384,311
1686016589.6767495,312
1686016589.6889565,314
1686016589.7014954,314
1686016589.71772,312
1686016589.7297728,311
1686016589.7427528,311
1686016589.758454,313
1686016589.7701936,314
1686016589.787064,313
1686016589.7990956,311
1686016589.8122287,311
1686016589.8280215,312
1686016589.840624,314
1686016589.8526118,315
1686016589.869301,314
1686016589.8816018,312
1686016589.8941894,312
1686016589.9102724,313
1686016589.9223228,315
1686016589.9392138,316
1686016589.9511802,314
1686016589.963329,313
1686016589.9796438,313
1686016589.9920952,315
1686016590.004447,316
1686016590.0200796,316
1686016590.0330577,314
1686016590.0454364,314
1686016590.0614634,314
1686016590.0737395,316
1686016590.0860143,317
1686016590.102982,316
1686016590.1152377,314
1686016590.1313574,313
1686016590.1443217,315
1686016590.1573153,317
1686016590.172325,317
1686016590.184756,316
1686016590.1969204,314
1686016590.212903,314
1686016590.2252934,315
1686016590.238081,316
1686016590.2538962,316
1686016590.266817,315
1686016590.282986,313
1686016590.2954633,314
1686016590.3073485,316
1686016590.3239188,317
1686016590.3359082,316
1686016590.3485744,315
1686016590.3644946,314
1686016590.3771515,314
1686016590.389124,316
1686016590.4054992,317
1686016590.4181824,316
1686016590.4339564,314
1686016590.4468608,314
1686016590.4592407,315
1686016590.475271,317
1686016590.488007,317
1686016590.4997284,316
1686016590.5164196,314
1686016590.5290542,314
1686016590.5411096,315
1686016590.557336,317
1686016590.5708337,317
1686016590.5816302,315
1686016590.5977895,314
1686016590.6107981,314
1686016590.6272714,316
1686016590.6387434,317
1686016590.651684,317
1686016590.6676826,315
1686016590.6794455,314
1686016590.692882,315
1686016590.7089267,317
1686016590.72093,318
1686016590.73375,316
1686016590.7499309,314
1686016590.7617934,314
1686016590.778201,315
1686016590.790658,317
1686016590.803198,317
1686016590.8192549,315
1686016590.8314857,314
1686016590.8438568,313
1686016590.8600216,315
1686016590.8729923,316
1686016590.8850484,316
1686016590.901492,314
1686016590.9138112,313
1686016590.9298859,313
1686016590.9420168,315
1686016590.9550014,317
1686016590.9712,316
1686016590.983272,314
1686016590.9956703,313
1686016591.0121372,315
1686016591.0246801,317
1686016591.0366757,317
1686016591.0527492,316
1686016591.065213,315
1686016591.0784717,314
1686016591.0937798,315
1686016591.1059883,317
1686016591.1225972,317
1686016591.1347938,316
1686016591.1470025,314
1686016591.162998,314
1686016591.1757817,316
1686016591.1881428,317
1686016591.2048514,317
1686016591.2169316,315
1686016591.2284317,314
1686016591.2454336,315
1686016591.2585027,317
1686016591.2734416,318
1686016591.2864146,317
1686016591.298415,315
1686016591.3144088,314
1686016591.3274765,315
1686016591.33989,317
1686016591.3564374,318
1686016591.3680618,317
1686016591.3808148,315
1686016591.3963902,314
1686016591.4094183,316
1686016591.4214873,317
1686016591.4381943,318
1686016591.4501054,316
1686016591.4659472,314
1686016591.4788857,314
1686016591.4913144,316
1686016591.507506,317
1686016591.5201962,316
1686016591.53275,314
1686016591.5485575,313
1686016591.560352,313
1686016591.5732427,315
1686016591.5898511,317
1686016591.6019323,316
1686016591.6175683,314
1686016591.6298096,313
1686016591.642187,314
1686016591.6588252,316
1686016591.6707685,317
1686016591.6839924,315
1686016591.7003524,313
1686016591.7119799,313
1686016591.724696,314
1686016591.7414787,316
1686016591.7534895,316
1686016591.7694888,315
1686016591.7818573,313
1686016591.7944088,313
1686016591.8103173,315
1686016591.8229713,317
1686016591.835336,316
1686016591.8513436,315
1686016591.8632836,314
1686016591.876229,315
1686016591.8926728,317
1686016591.9050317,318
1686016591.9170105,317
1686016591.9330342,315
1686016591.9455137,314
1686016591.9623723,315
1686016591.974581,317
1686016591.9866116,317
1686016592.0033202,316
1686016592.0149672,314
1686016592.0280046,314
1686016592.0442922,315
1686016592.0567324,317
1686016592.0688584,317
1686016592.0852349,315
1686016592.0970535,314
1686016592.1135724,313
1686016592.1261067,315
1686016592.1380937,317
1686016592.155384,316
1686016592.1664238,314
1686016592.179467,313
1686016592.195105,313
1686016592.2082345,315
1686016592.2202528,316
1686016592.2370076,315
1686016592.2486882,313
1686016592.2649245,313
1686016592.2771034,314
1686016592.2900517,316
1686016592.3060431,316
1686016592.3184373,315
1686016592.331115,313
1686016592.3476825,313
1686016592.3599286,315
1686016592.371937,316
1686016592.388196,316
1686016592.4000952,315
1686016592.4127734,313
1686016592.4291031,313
1686016592.441806,315
1686016592.4572656,316
1686016592.4702213,316
1686016592.4823728,314
1686016592.4980502,313
1686016592.511218,313
1686016592.5234375,315
1686016592.5398598,316
1686016592.5521705,315
1686016592.563838,313
1686016592.5807245,313
1686016592.5926769,314
1686016592.6087365,316
1686016592.6214144,317
1686016592.6331863,315
1686016592.6498206,313
1686016592.6620524,313
1686016592.6750038,314
1686016592.6913774,316
1686016592.7039275,316
1686016592.7159498,314
1686016592.7320316,312
1686016592.744845,313
1686016592.7568092,315
1686016592.772493,316
1686016592.7854857,316
1686016592.8010845,314
1686016592.8136086,313
1686016592.8266137,313
1686016592.843192,315
1686016592.855718,316
1686016592.8675694,315
1686016592.8838074,313
1686016592.8960235,312
1686016592.9084368,313
1686016592.9248269,315
1686016592.936259,316
1686016592.953113,314
1686016592.9650867,313
1686016592.9780622,313
1686016592.9944654,315
1686016593.006776,317
1686016593.0190485,317
1686016593.0350602,315
1686016593.0478737,314
1686016593.0599196,315
1686016593.0757942,317
1686016593.0890229,318
1686016593.1041498,317
1686016593.1169686,316
1686016593.128955,315
1686016593.1454735,316
1686016593.1584513,317
1686016593.1707773,318
1686016593.1871326,317
1686016593.1995046,315
1686016593.211135,314
1686016593.227866,316
1686016593.2402675,318
1686016593.2520623,318
1686016593.2691648,316
1686016593.2811062,315
1686016593.2968576,315
1686016593.3096106,317
1686016593.3213823,318
1686016593.3378518,318
1686016593.3508565,316
1686016593.3628507,315
1686016593.3793292,315
1686016593.3917918,317
1686016593.4033926,319
1686016593.4203386,318
1686016593.4327652,316
1686016593.448511,315
1686016593.4610572,316
1686016593.473952,318
1686016593.4900868,318
1686016593.5016868,317
1686016593.5146995,315
1686016593.5303361,314
1686016593.5436254,315
1686016593.5558753,317
1686016593.5716138,317
1686016593.5843384,316
1686016593.6008985,314
1686016593.6130452,314
1686016593.625223,316
1686016593.6411967,317
1686016593.653821,317
1686016593.6658201,315
1686016593.6828883,314
1686016593.694187,315
1686016593.7072415,316
1686016593.723427,317
1686016593.7359066,317
1686016593.7481482,315
1686016593.7642403,314
1686016593.7764425,315
1686016593.7925317,316
1686016593.8055003,317
1686016593.8178,316
1686016593.8337338,314
1686016593.8464522,314
1686016593.8587062,315
1686016593.874513,317
1686016593.8874469,317
1686016593.8994896,315
1686016593.9158387,314
1686016593.927983,314
1686016593.9440982,315
1686016593.957044,317
1686016593.968957,317
1686016593.984965,315
1686016593.9980226,314
1686016594.0098283,314
1686016594.0258512,316
1686016594.0392978,317
1686016594.051481,316
1686016594.0675492,314
1686016594.0794237,313
1686016594.092415,314
1686016594.1085,316
1686016594.1207745,317
1686016594.1370668,315
1686016594.1493745,313
1686016594.1610708,313
1686016594.1779778,314
1686016594.1897728,316
1686016594.2028487,316
1686016594.2193725,314
1686016594.2308629,313
1686016594.243408,312
1686016594.260087,314
1686016594.2719276,315
1686016594.2879417,315
1686016594.3010464,313
1686016594.313367,312
1686016594.3300483,312
1686016594.3420439,314
1686016594.354559,314
1686016594.370213,313
1686016594.3831286,311
1686016594.3950627,310
1686016594.4110425,311
1686016594.4240413,313
1686016594.4402153,314
1686016594.4523764,312
1686016594.4650447,310
1686016594.48106,311
1686016594.493375,313
1686016594.5052807,315
1686016594.5220466,317
1686016594.534369,317
1686016594.5471232,318
1686016594.5631263,320
1686016594.5753822,324
1686016594.5880435,328
1686016594.6043327,330
1686016594.6163871,332
1686016594.6326456,333
1686016594.6444442,336
1686016594.6575587,338
1686016594.672973,339
1686016594.6860418,336
1686016594.6989596,330
1686016594.7143319,322
1686016594.7270443,315
1686016594.738968,308
1686016594.7548552,299
1686016594.7679367,290
