timestamps,emg_signal
1686111071.9709506,392
1686111071.9879315,394
1686111071.9999316,394
1686111072.0119467,394
1686111072.0279522,395
1686111072.040957,396
1686111072.0529299,396
1686111072.0695603,397
1686111072.0816002,397
1686111072.0976405,397
1686111072.1105907,397
1686111072.12258,397
1686111072.1386006,398
1686111072.1510613,399
1686111072.1631143,398
1686111072.180243,398
1686111072.1922467,397
1686111072.2042532,397
1686111072.2212462,396
1686111072.2332625,395
1686111072.2452617,394
1686111072.2617402,392
1686111072.2737846,390
1686111072.290741,389
1686111072.3027275,388
1686111072.3147964,387
1686111072.3317294,386
1686111072.3437667,384
1686111072.3557847,383
1686111072.3724723,382
1686111072.3843875,381
1686111072.3973875,381
1686111072.4133399,380
1686111072.4256232,379
1686111072.4413264,379
1686111072.4548793,379
1686111072.4663885,379
1686111072.4833283,379
1686111072.4953468,379
1686111072.5073943,380
1686111072.5243297,381
1686111072.5363295,382
1686111072.5483277,383
1686111072.5643926,382
1686111072.5774944,382
1686111072.5896344,382
1686111072.6062124,381
1686111072.6185358,381
1686111072.6345487,380
1686111072.6465921,379
1686111072.6595318,377
1686111072.675549,376
1686111072.6875298,375
1686111072.6996026,375
1686111072.7165303,374
1686111072.7285266,373
1686111072.7407987,372
1686111072.7575548,372
1686111072.769553,372
1686111072.785533,372
1686111072.7985508,372
1686111072.810567,371
1686111072.826531,370
1686111072.8389919,370
1686111072.8513095,370
1686111072.8682384,369
1686111072.8798702,368
1686111072.8928208,367
1686111072.9088156,367
1686111072.920877,366
1686111072.936812,366
1686111072.949808,366
1686111072.9628136,365
1686111072.97881,364
1686111072.9908168,365
1686111073.002806,365
1686111073.0198123,365
1686111073.0321426,366
1686111073.0440886,365
1686111073.0608106,366
1686111073.072807,365
1686111073.0848086,365
1686111073.1008098,367
1686111073.1138084,368
1686111073.1298132,369
1686111073.1428113,370
1686111073.1548069,371
1686111073.1708045,373
1686111073.182809,375
1686111073.1958203,376
1686111073.211815,378
1686111073.2238884,379
1686111073.2368088,381
1686111073.2528162,383
1686111073.2648246,383
1686111073.2810354,383
1686111073.2938163,383
1686111073.3058078,383
1686111073.3228097,384
1686111073.334815,385
1686111073.346809,385
1686111073.3638084,384
1686111073.3758302,384
1686111073.3880265,383
1686111073.4048076,382
1686111073.4168847,382
1686111073.4288254,382
1686111073.4454966,382
1686111073.4574826,381
1686111073.474484,381
1686111073.4864793,380
1686111073.4984775,379
1686111073.514535,379
1686111073.5274785,377
1686111073.5394785,377
1686111073.5562234,377
1686111073.5684555,375
1686111073.580703,374
1686111073.5967019,372
1686111073.60969,371
1686111073.625687,369
1686111073.6377354,369
1686111073.650688,367
1686111073.6666882,365
1686111073.6785629,363
1686111073.6915786,360
1686111073.7075772,359
1686111073.7196212,357
1686111073.7326193,355
1686111073.7485619,353
1686111073.7605588,350
1686111073.7735028,349
1686111073.7894993,347
1686111073.801483,347
1686111073.818542,347
1686111073.8304975,346
1686111073.8424985,346
1686111073.8594868,347
1686111073.8714828,348
1686111073.8834825,349
1686111073.9004922,351
1686111073.9124968,352
1686111073.9246707,353
1686111073.9408238,354
1686111073.9528694,356
1686111073.9698145,357
1686111073.9821446,356
1686111073.9945188,355
1686111074.0112255,354
1686111074.0232496,353
1686111074.035242,353
1686111074.0518446,353
1686111074.06412,353
1686111074.0760067,352
1686111074.0929446,352
1686111074.10494,351
1686111074.1210625,351
1686111074.133727,351
1686111074.1457183,350
1686111074.1627364,350
1686111074.1740544,347
1686111074.1871128,343
1686111074.2034035,341
1686111074.2158663,340
1686111074.2278624,339
1686111074.243722,339
1686111074.2567484,339
1686111074.2690637,338
1686111074.2854075,338
1686111074.2972975,338
1686111074.3140318,337
1686111074.326023,336
1686111074.3388128,335
1686111074.3551965,334
1686111074.3671787,333
1686111074.3791883,331
1686111074.396323,329
1686111074.4083102,328
1686111074.4205859,326
1686111074.4363983,324
1686111074.4498987,322
1686111074.465441,320
1686111074.4771392,317
1686111074.4900749,315
1686111074.5059652,313
1686111074.5189672,311
1686111074.5311434,310
1686111074.547336,308
1686111074.5591433,307
1686111074.5723612,306
1686111074.5882013,306
1686111074.6002743,307
1686111074.6124065,308
1686111074.6294062,309
1686111074.6415603,312
1686111074.6575303,315
1686111074.6704519,318
1686111074.682715,321
1686111074.6983693,322
1686111074.7113667,324
1686111074.7234025,325
1686111074.739374,327
1686111074.752374,327
1686111074.7643816,328
1686111074.7813642,328
1686111074.7930112,328
1686111074.8092513,328
1686111074.8213043,329
1686111074.834286,330
1686111074.8510334,330
1686111074.862599,331
1686111074.8753865,332
1686111074.8918016,332
1686111074.903816,333
1686111074.915825,335
1686111074.932751,335
1686111074.9449205,335
1686111074.9609156,336
1686111074.9729104,337
1686111074.9859195,337
1686111075.00186,337
1686111075.0148604,338
1686111075.0268688,337
1686111075.043036,336
1686111075.055635,336
1686111075.0675788,336
1686111075.0835702,337
1686111075.0961616,337
1686111075.1086702,336
1686111075.1251085,337
1686111075.1376722,337
1686111075.1536667,338
1686111075.165681,338
1686111075.1776674,339
1686111075.1946838,340
1686111075.2066793,341
1686111075.218725,342
1686111075.2350774,344
1686111075.2475398,345
1686111075.2595346,347
1686111075.2757976,347
1686111075.2885878,349
1686111075.3048422,351
1686111075.3176222,352
1686111075.3298955,354
1686111075.3455021,354
1686111075.3583517,355
1686111075.3709865,356
1686111075.3870249,358
1686111075.399151,359
1686111075.4119027,359
1686111075.428292,361
1686111075.4402716,361
1686111075.4530008,363
1686111075.4688072,364
1686111075.481421,366
1686111075.4978547,366
1686111075.5103533,367
1686111075.5219493,369
1686111075.538966,370
1686111075.5513284,371
1686111075.5629659,372
1686111075.579961,373
1686111075.5919564,374
1686111075.6039531,374
1686111075.61995,376
1686111075.6329486,377
1686111075.6489472,377
1686111075.6610115,377
1686111075.673948,378
1686111075.690585,378
1686111075.7025805,379
1686111075.7145593,380
1686111075.730618,380
1686111075.7435803,380
1686111075.7555797,380
1686111075.7715657,380
1686111075.7845738,380
1686111075.7965617,380
1686111075.812624,380
1686111075.825212,379
1686111075.8418205,379
1686111075.8536284,380
1686111075.8656414,380
1686111075.8829846,380
1686111075.8958852,380
1686111075.9064653,380
1686111075.923783,380
1686111075.9363716,381
1686111075.9485579,383
1686111075.9640665,384
1686111075.9770536,385
1686111075.9929838,386
1686111076.005882,388
1686111076.017552,389
1686111076.0345933,389
1686111076.0465956,390
1686111076.0585976,389
1686111076.0759346,388
1686111076.0872993,388
1686111076.0996287,388
1686111076.1160476,386
1686111076.128248,385
1686111076.1440918,384
1686111076.1572075,383
1686111076.169645,382
1686111076.1860251,382
1686111076.1975567,381
1686111076.2106168,380
1686111076.2271235,379
1686111076.2391644,379
1686111076.2514555,379
1686111076.267804,378
1686111076.2798479,378
1686111076.2924721,378
1686111076.308886,377
1686111076.3211427,376
1686111076.3374224,376
1686111076.3495035,376
1686111076.3634455,375
1686111076.3784132,375
1686111076.3907158,375
1686111076.4032884,376
1686111076.419414,377
1686111076.4318879,377
1686111076.444478,377
1686111076.4603887,377
1686111076.473118,379
1686111076.4881876,376
1686111076.5011969,375
1686111076.5134394,377
1686111076.529536,376
1686111076.542206,380
1686111076.5542548,379
1686111076.57114,379
1686111076.5837107,380
1686111076.5955415,381
1686111076.6121738,380
1686111076.6242428,378
1686111076.6361866,377
1686111076.6534517,380
1686111076.6645806,378
1686111076.6808004,379
1686111076.6932023,379
1686111076.7061908,378
1686111076.7221818,378
1686111076.7341988,379
1686111076.7471836,379
1686111076.7631924,378
1686111076.7756672,377
1686111076.787185,378
1686111076.8044868,378
1686111076.8161979,378
1686111076.832438,377
1686111076.845256,376
1686111076.8572528,375
1686111076.87398,375
1686111076.8860114,375
1686111076.8980541,376
1686111076.914918,376
1686111076.9274614,376
1686111076.9390085,376
1686111076.955679,376
1686111076.9676871,376
1686111076.980524,375
1686111076.9969165,375
1686111077.0093493,373
1686111077.0248313,372
1686111077.0378249,372
1686111077.0498252,372
1686111077.065824,370
1686111077.0788171,369
1686111077.0910475,367
1686111077.1074667,366
1686111077.1193035,366
1686111077.1320012,366
1686111077.1483681,365
1686111077.160411,365
1686111077.1766868,364
1686111077.1889157,364
1686111077.2009268,364
1686111077.2179487,363
1686111077.2299557,363
1686111077.2427402,363
1686111077.2584121,362
1686111077.2711968,363
1686111077.2837508,362
1686111077.30021,362
1686111077.3123581,361
1686111077.3287814,360
1686111077.3407767,359
1686111077.3531322,358
1686111077.369837,357
1686111077.381873,356
1686111077.394406,356
1686111077.410821,354
1686111077.4224782,354
1686111077.43509,354
1686111077.451757,353
1686111077.46327,353
1686111077.477061,352
1686111077.4921687,352
1686111077.5045469,351
1686111077.52037,352
1686111077.5331562,352
1686111077.5456362,352
1686111077.5617027,352
1686111077.5736809,353
1686111077.586634,353
1686111077.6032538,354
1686111077.6155763,354
1686111077.6272032,354
1686111077.6438682,354
1686111077.6564243,355
1686111077.6725202,355
1686111077.6843195,356
1686111077.6973557,356
1686111077.713588,356
1686111077.72624,356
1686111077.7382984,357
1686111077.7546604,358
1686111077.766931,359
1686111077.7790182,360
1686111077.7953217,361
1686111077.8073845,362
1686111077.823188,364
1686111077.837258,365
1686111077.8487382,366
1686111077.8647969,367
1686111077.8774047,368
1686111077.889695,369
1686111077.9056911,371
1686111077.9176962,374
1686111077.9306912,376
1686111077.9464045,378
1686111077.95912,379
1686111077.971724,380
1686111077.9880488,381
1686111078.0003457,382
1686111078.0160367,382
1686111078.02903,382
1686111078.040684,382
1686111078.0571964,382
1686111078.0700078,383
1686111078.082388,382
1686111078.0983324,382
1686111078.1103287,381
1686111078.123351,380
1686111078.1392214,380
1686111078.1517634,380
1686111078.1682057,380
1686111078.1802359,380
1686111078.1930714,379
1686111078.2087677,379
1686111078.2215106,380
1686111078.2337768,381
1686111078.2498589,381
1686111078.26187,381
1686111078.2738743,380
1686111078.2913268,380
1686111078.3029795,380
1686111078.3158689,381
1686111078.332379,380
1686111078.3440928,380
1686111078.3605306,380
1686111078.372524,380
1686111078.3855095,380
1686111078.4017026,380
1686111078.414123,380
1686111078.426517,380
1686111078.442725,380
1686111078.455314,379
1686111078.4671924,380
1686111078.4838994,380
1686111078.495112,381
1686111078.5121198,380
1686111078.5242476,380
1686111078.536903,381
1686111078.553458,381
1686111078.5655758,381
1686111078.578128,381
1686111078.594332,381
1686111078.606156,381
1686111078.618692,382
1686111078.6351266,383
1686111078.647159,383
1686111078.6635354,383
1686111078.6764498,383
1686111078.688425,383
1686111078.7050543,383
1686111078.7174761,384
1686111078.7295632,384
1686111078.7454743,383
1686111078.7581615,383
1686111078.7708158,383
1686111078.7866538,382
1686111078.7990108,382
1686111078.8119864,382
1686111078.8270643,382
1686111078.840199,381
1686111078.8562458,381
1686111078.8686364,382
1686111078.8807118,382
1686111078.8965735,381
1686111078.9096184,381
1686111078.9219804,381
1686111078.938569,381
1686111078.9502413,381
1686111078.9627004,381
1686111078.9789438,380
1686111078.9918082,380
1686111079.00704,380
1686111079.0202506,380
1686111079.0328128,380
1686111079.0491827,380
1686111079.0611792,380
1686111079.0735269,379
1686111079.0897043,380
1686111079.1021163,380
1686111079.1143732,380
1686111079.1302686,378
1686111079.1428356,377
1686111079.154845,376
1686111079.1712668,376
1686111079.184168,376
1686111079.20026,376
1686111079.2129302,375
1686111079.2250352,374
1686111079.2414622,374
1686111079.2536814,374
1686111079.2664108,374
1686111079.2822673,374
1686111079.2943025,373
1686111079.3072534,372
1686111079.3228195,372
1686111079.334826,372
1686111079.352278,372
1686111079.3643992,372
1686111079.3770766,371
1686111079.3933399,371
1686111079.405216,372
1686111079.4176354,372
1686111079.4338317,372
1686111079.4455006,372
1686111079.458287,371
1686111079.4743948,370
1686111079.4868207,371
1686111079.5035233,371
1686111079.51563,371
1686111079.527648,371
1686111079.5445476,370
1686111079.557111,371
1686111079.5691574,371
1686111079.585429,371
1686111079.5977461,371
1686111079.6101255,370
1686111079.626038,369
1686111079.6387386,369
1686111079.6508663,369
1686111079.6674578,369
1686111079.6790197,369
1686111079.6960337,369
1686111079.7084572,368
1686111079.7217145,368
1686111079.737429,368
1686111079.7493458,369
1686111079.7615035,369
1686111079.7777524,368
1686111079.7900753,368
1686111079.802172,369
1686111079.819076,369
1686111079.8314166,369
1686111079.8471303,368
1686111079.8601115,369
1686111079.8723466,369
1686111079.888923,369
1686111079.9009945,369
1686111079.9131775,369
1686111079.928928,369
1686111079.9416964,369
1686111079.9541037,368
1686111079.9699008,368
1686111079.982886,368
1686111079.9945776,368
1686111080.01137,367
1686111080.0239484,367
1686111080.0396647,367
1686111080.0522614,368
1686111080.0653684,368
1686111080.081006,368
1686111080.092982,367
1686111080.105656,367
1686111080.1219022,368
1686111080.1343002,368
1686111080.1463892,368
1686111080.162915,369
1686111080.1751604,368
1686111080.1914158,368
1686111080.2041252,368
1686111080.2161205,369
1686111080.232594,369
1686111080.24516,369
1686111080.2573137,368
1686111080.2736902,369
1686111080.2856903,370
1686111080.2982626,370
1686111080.3142078,370
1686111080.3271172,369
1686111080.3434262,369
1686111080.3553166,369
1686111080.3673143,369
1686111080.3843641,369
1686111080.3965907,369
1686111080.409124,369
1686111080.4249942,368
1686111080.4374194,368
1686111080.4494593,369
1686111080.4663596,369
1686111080.4786305,369
1686111080.4910812,369
1686111080.5073326,369
1686111080.5192838,370
1686111080.5356588,371
1686111080.5478728,371
1686111080.5604644,372
1686111080.576778,372
1686111080.5889666,373
1686111080.6010091,375
1686111080.6170697,376
1686111080.6296625,376
1686111080.6415694,376
1686111080.6579618,377
1686111080.6710541,377
1686111080.6869855,379
1686111080.6992025,379
1686111080.7115479,379
1686111080.7284398,379
1686111080.739737,380
1686111080.752757,381
1686111080.7690697,381
1686111080.780686,381
1686111080.7935233,381
1686111080.8100543,381
1686111080.8226812,380
1686111080.8343976,380
1686111080.850469,379
1686111080.8634026,379
1686111080.879401,378
1686111080.8914552,378
1686111080.9043977,376
1686111080.9203954,376
1686111080.9324028,375
1686111080.9444,374
1686111080.9617803,373
1686111080.9736345,372
1686111080.9860556,371
1686111081.0022967,371
1686111081.0146325,370
1686111081.0310788,369
1686111081.043046,368
1686111081.0555997,367
1686111081.0724483,367
1686111081.0845492,367
1686111081.0973463,366
1686111081.1129336,365
1686111081.1255558,364
1686111081.1380942,364
1686111081.1541762,364
1686111081.1659966,364
1686111081.1820576,364
1686111081.1946228,363
1686111081.2082136,363
1686111081.2239556,363
1686111081.236276,363
1686111081.2477703,363
1686111081.2650652,363
1686111081.2771695,362
1686111081.2889917,362
1686111081.3051956,362
1686111081.3176053,363
1686111081.3301067,362
1686111081.346827,363
1686111081.3592439,362
1686111081.3754344,362
1686111081.38778,362
1686111081.4000719,363
1686111081.4163232,362
1686111081.428245,363
1686111081.4409423,362
1686111081.4568913,363
1686111081.4696417,363
1686111081.482015,364
1686111081.4980962,364
1686111081.510053,364
1686111081.5262067,364
1686111081.5391028,365
1686111081.5510032,365
1686111081.5671787,365
1686111081.5801191,365
1686111081.592446,364
1686111081.609124,364
1686111081.6210098,364
1686111081.6328948,365
1686111081.649988,365
1686111081.6626377,365
1686111081.6742604,364
1686111081.6902685,365
1686111081.7028124,365
1686111081.7185357,366
1686111081.7316706,366
1686111081.743511,366
1686111081.7605505,366
1686111081.7729373,367
1686111081.7846434,367
1686111081.8014545,367
1686111081.8135018,367
1686111081.825546,367
1686111081.8425238,366
1686111081.8545897,367
1686111081.8711524,367
1686111081.8824008,368
1686111081.8955643,367
1686111081.911924,367
1686111081.9244308,366
1686111081.9365258,367
1686111081.9524257,367
1686111081.9652696,367
1686111081.976657,367
1686111081.993609,366
1686111082.006112,366
1686111082.0224972,366
1686111082.034466,367
1686111082.0469577,366
1686111082.0628111,366
1686111082.0758276,366
1686111082.0876143,366
1686111082.1044338,367
1686111082.1167762,367
1686111082.128664,367
1686111082.1456635,367
1686111082.157597,366
1686111082.1699684,366
1686111082.1858735,367
1686111082.19864,367
1686111082.2146394,367
1686111082.2276683,366
1686111082.2393663,366
1686111082.2562377,366
1686111082.2684066,367
1686111082.2805998,367
1686111082.296826,367
1686111082.309369,367
1686111082.3218226,367
1686111082.3380604,367
1686111082.3500595,367
1686111082.366567,367
1686111082.378575,367
1686111082.3914673,367
1686111082.4073198,367
1686111082.4198093,367
1686111082.431889,368
1686111082.4485233,368
1686111082.4606853,368
1686111082.473046,367
1686111082.4894483,367
1686111082.5013926,368
1686111082.513945,368
1686111082.530097,368
1686111082.5427701,368
1686111082.559202,368
1686111082.5713344,368
1686111082.583195,367
1686111082.600114,368
1686111082.6120687,367
1686111082.6245422,367
1686111082.6405318,366
1686111082.6534739,367
1686111082.6654613,367
1686111082.6814764,367
1686111082.6944647,366
1686111082.7104642,366
1686111082.7225292,366
1686111082.7345283,366
1686111082.7514634,366
1686111082.7635193,366
1686111082.7755291,366
1686111082.7924738,365
1686111082.8042402,365
1686111082.8172455,366
1686111082.8332312,366
1686111082.8452928,366
1686111082.8572912,365
1686111082.8742533,365
1686111082.886295,366
1686111082.9023616,366
1686111082.915305,366
1686111082.9274225,367
1686111082.943403,366
1686111082.956406,367
1686111082.9684026,367
1686111082.9847057,367
1686111082.9974034,367
1686111083.0094073,367
1686111083.025455,367
1686111083.0374258,367
1686111083.0544882,367
1686111083.0664587,368
1686111083.0784159,368
1686111083.0955892,368
1686111083.1074054,369
1686111083.1194038,369
1686111083.1364882,369
1686111083.1484067,370
1686111083.160878,370
1686111083.1774168,369
1686111083.1899073,369
1686111083.2059078,370
1686111083.2187352,370
1686111083.2299116,370
1686111083.2469132,370
1686111083.258922,370
1686111083.271904,369
1686111083.2879624,370
1686111083.2999816,370
1686111083.3129086,370
1686111083.3292239,370
1686111083.3410463,369
1686111083.3531907,370
1686111083.370062,370
1686111083.381996,370
1686111083.3981483,370
1686111083.4102564,370
1686111083.4230368,370
1686111083.4398851,369
1686111083.4518871,369
1686111083.4639745,370
1686111083.480737,369
1686111083.4927266,369
1686111083.5053432,368
1686111083.5212252,368
1686111083.5328622,369
1686111083.5493054,369
1686111083.5622754,368
1686111083.5745466,368
1686111083.5908349,368
1686111083.6028314,368
1686111083.615829,368
1686111083.6318033,368
1686111083.6448069,368
1686111083.656804,368
1686111083.6728566,368
1686111083.6846666,368
1686111083.6974123,368
1686111083.713712,368
1686111083.725716,368
1686111083.742085,369
1686111083.7549794,369
1686111083.7669508,369
1686111083.783822,369
1686111083.796227,369
1686111083.8084207,368
1686111083.8239858,368
1686111083.8369608,369
1686111083.849359,369
1686111083.8652797,369
1686111083.8775413,369
1686111083.893557,368
1686111083.906996,368
1686111083.9183652,369
1686111083.9346585,370
1686111083.9475088,370
1686111083.9590569,369
1686111083.975792,369
1686111083.9885411,370
1686111084.0009382,370
1686111084.0171347,370
1686111084.029464,369
1686111084.0416853,369
1686111084.0582836,369
1686111084.0702705,369
1686111084.0867755,370
1686111084.0991485,371
1686111084.1106381,370
1686111084.1277325,370
1686111084.139544,370
1686111084.1519778,369
1686111084.1680179,369
1686111084.1809006,369
1686111084.1934083,368
1686111084.209358,368
1686111084.2220702,368
1686111084.238409,368
1686111084.251001,368
1686111084.2631626,368
1686111084.2794113,367
1686111084.2918143,367
1686111084.3035235,367
1686111084.32044,367
1686111084.3325741,368
1686111084.3449867,367
1686111084.3606555,367
1686111084.3736267,367
1686111084.3897538,367
1686111084.402389,367
1686111084.4144893,366
1686111084.431137,366
1686111084.4421818,366
1686111084.4550247,365
1686111084.4720132,365
1686111084.4833367,366
1686111084.4964392,365
1686111084.5123835,364
1686111084.5250704,364
1686111084.5372596,364
1686111084.553754,364
1686111084.56562,364
1686111084.5823858,364
1686111084.594508,363
1686111084.6061814,363
1686111084.623436,363
1686111084.6356237,363
1686111084.6478963,363
1686111084.6636658,363
1686111084.6769803,362
1686111084.6890428,362
1686111084.705377,362
1686111084.7176626,363
1686111084.7336762,363
1686111084.7461903,363
1686111084.7579699,363
1686111084.7747822,362
1686111084.786996,363
1686111084.7987635,363
1686111084.8152723,363
1686111084.8283467,363
1686111084.8404927,363
1686111084.856988,364
1686111084.8689873,364
1686111084.8813946,365
1686111084.8979805,365
1686111084.9100761,364
1686111084.925821,364
1686111084.9390318,365
1686111084.9510772,366
1686111084.9674535,366
1686111084.9790814,366
1686111084.9921129,366
1686111085.0081792,366
1686111085.0204365,367
1686111085.0330732,367
1686111085.0493028,368
1686111085.0614116,368
1686111085.0776176,368
1686111085.0897343,368
1686111085.1018188,368
1686111085.1189299,368
1686111085.1310995,369
1686111085.1428366,369
1686111085.159416,368
1686111085.1714134,369
1686111085.1842098,369
1686111085.2009122,370
1686111085.213557,370
1686111085.2253785,370
1686111085.2413778,370
1686111085.2541587,370
1686111085.2707644,370
1686111085.282822,370
1686111085.2950306,370
1686111085.310998,370
1686111085.3234258,370
1686111085.336195,369
1686111085.3524303,370
1686111085.3638527,370
1686111085.3769357,370
1686111085.3930607,370
1686111085.4058015,370
1686111085.4219973,370
1686111085.4340417,371
1686111085.4466422,371
1686111085.463295,371
1686111085.4750717,371
1686111085.4869835,371
1686111085.5039308,372
1686111085.5163295,372
1686111085.528513,372
1686111085.5445335,372
1686111085.5572565,372
1686111085.573618,372
1686111085.5861065,373
1686111085.5981762,374
1686111085.614592,374
1686111085.6268873,374
1686111085.639403,374
1686111085.654979,374
1686111085.6681051,375
1686111085.680102,375
1686111085.6961622,375
1686111085.7086978,375
1686111085.7206845,374
1686111085.7377913,375
1686111085.7499223,375
1686111085.7661126,375
1686111085.7783144,374
1686111085.7900918,374
1686111085.8072674,373
1686111085.819469,374
1686111085.8314564,374
1686111085.8475223,374
1686111085.8602567,373
1686111085.8723688,373
1686111085.889037,373
1686111085.9010177,374
1686111085.9175813,374
1686111085.9299219,374
1686111085.9422364,374
1686111085.9585137,373
1686111085.9710982,374
1686111085.9834015,375
1686111085.9994018,375
1686111086.012169,374
1686111086.0242283,374
1686111086.0407944,374
1686111086.0528767,374
1686111086.065099,375
1686111086.0813482,375
1686111086.09361,375
1686111086.1097903,375
1686111086.1224504,375
1686111086.1350262,376
1686111086.1513944,376
1686111086.1631703,376
1686111086.1758552,375
1686111086.1920054,375
1686111086.2044103,375
1686111086.2167451,376
1686111086.2330065,376
1686111086.2453806,376
1686111086.2616897,375
1686111086.2738748,375
1686111086.286361,375
1686111086.3019779,375
1686111086.314643,375
1686111086.3274555,375
1686111086.3434255,375
1686111086.3553133,375
1686111086.3681676,376
1686111086.384226,376
1686111086.3964744,376
1686111086.4133656,375
1686111086.4254317,375
1686111086.4376209,375
1686111086.4543595,375
1686111086.466306,376
1686111086.4783547,376
1686111086.495349,376
1686111086.5071733,376
1686111086.5198655,376
1686111086.5360434,376
1686111086.548085,376
1686111086.5610228,376
1686111086.5771182,375
1686111086.5893116,375
1686111086.6052814,375
1686111086.6178606,375
1686111086.6298604,375
1686111086.646851,375
1686111086.6588683,375
1686111086.6712089,375
1686111086.6878524,375
1686111086.6999285,375
1686111086.7119296,375
1686111086.7288535,375
1686111086.7408886,375
1686111086.7567983,375
1686111086.769314,375
1686111086.781913,375
1686111086.797978,375
1686111086.810405,375
1686111086.823066,374
1686111086.839136,374
1686111086.8511207,374
1686111086.8631585,374
1686111086.8801877,373
1686111086.8921165,373
1686111086.9049318,372
1686111086.9208496,372
1686111086.9328566,372
1686111086.9499197,371
1686111086.96201,370
1686111086.9739165,370
1686111086.9903724,369
1686111087.0031471,369
1686111087.0154757,369
1686111087.031058,369
1686111087.0438583,368
1686111087.0558724,368
1686111087.0730212,368
1686111087.0845144,367
1686111087.1005244,367
1686111087.1130497,367
1686111087.1263173,366
1686111087.142061,365
1686111087.154519,365
1686111087.1669993,365
1686111087.1832588,364
1686111087.195437,364
1686111087.208003,363
1686111087.2236402,362
1686111087.2365901,362
1686111087.2486293,362
1686111087.2649179,362
1686111087.2776296,362
1686111087.2936327,361
1686111087.3055568,361
1686111087.318374,360
1686111087.3343654,360
1686111087.347036,360
1686111087.359095,359
1686111087.3761094,359
1686111087.3880873,358
1686111087.4000914,358
1686111087.4166913,359
1686111087.4291825,359
1686111087.4449723,358
1686111087.4577522,358
1686111087.4698968,357
1686111087.4866009,357
1686111087.4986784,358
1686111087.5108235,358
1686111087.5266614,357
1686111087.5396569,357
1686111087.5517588,358
1686111087.5676343,358
1686111087.5806837,358
1686111087.5925984,357
1686111087.608608,356
1686111087.6206646,356
1686111087.6376567,356
1686111087.649664,356
1686111087.6626022,355
1686111087.6786609,355
1686111087.690601,355
1686111087.7036622,355
1686111087.7196136,357
1686111087.7319534,358
1686111087.7446022,358
1686111087.7605603,357
1686111087.7732372,356
1686111087.7893505,355
1686111087.8015575,353
1686111087.8135428,350
1686111087.8305397,348
1686111087.8425846,346
1686111087.8548043,345
1686111087.8714743,345
1686111087.88353,345
1686111087.895484,346
1686111087.9124923,346
1686111087.924473,346
1686111087.9404771,347
1686111087.9534972,348
1686111087.965559,349
1686111087.981796,350
1686111087.9944844,351
1686111088.0065591,351
1686111088.0235732,352
1686111088.034558,353
1686111088.047625,355
1686111088.0638227,357
1686111088.075876,358
1686111088.088664,360
1686111088.1048048,363
1686111088.1166236,366
1686111088.1336284,368
1686111088.1455646,370
1686111088.1575627,372
1686111088.17457,373
1686111088.1865797,375
1686111088.1988425,376
1686111088.2149282,377
1686111088.2279003,377
1686111088.2399244,377
1686111088.2568712,377
1686111088.2689369,379
1686111088.2841277,380
1686111088.2972362,381
1686111088.309152,380
1686111088.3258736,380
1686111088.3378642,380
1686111088.3508773,380
1686111088.3669405,379
1686111088.379083,377
1686111088.390922,379
1686111088.4078689,381
1686111088.4202182,384
1686111088.431871,388
1686111088.4488714,396
1686111088.4612193,403
1686111088.477583,414
1686111088.4898732,424
1686111088.5018845,437
1686111088.5178869,449
1686111088.5309274,458
1686111088.5432215,465
1686111088.559008,470
1686111088.5718846,474
1686111088.5839474,476
1686111088.6001828,475
1686111088.6129315,473
1686111088.628949,467
1686111088.641205,460
1686111088.6533,452
1686111088.6703176,443
1686111088.6823099,433
1686111088.6944258,424
1686111088.710456,414
1686111088.7233996,405
1686111088.7355006,397
1686111088.7517562,391
1686111088.7644782,384
1686111088.7765224,379
1686111088.7927387,374
1686111088.8044114,371
1686111088.8218448,368
1686111088.8342505,366
1686111088.8453267,363
1686111088.8624582,360
1686111088.8746498,358
1686111088.8873177,356
1686111088.9036143,354
1686111088.9158015,352
1686111088.9280388,348
1686111088.9448,344
1686111088.956495,341
1686111088.9725723,338
1686111088.9854894,335
1686111088.9974406,332
1686111089.013429,329
1686111089.0267234,326
1686111089.0387216,324
1686111089.054657,323
1686111089.0676603,321
1686111089.0796645,318
1686111089.0960133,314
1686111089.1080756,310
1686111089.1241066,308
1686111089.1368318,307
1686111089.1492076,307
1686111089.1654563,308
1686111089.1774516,309
1686111089.190393,312
1686111089.206455,315
1686111089.218411,319
1686111089.231408,323
1686111089.2474573,327
1686111089.259406,331
1686111089.2723942,335
1686111089.2884724,339
1686111089.300425,343
1686111089.3169158,348
1686111089.3293037,351
1686111089.3420177,355
1686111089.3579443,358
1686111089.369949,364
1686111089.3823118,368
1686111089.3992677,372
1686111089.4112976,376
1686111089.4230006,381
1686111089.4399483,387
1686111089.4522367,395
1686111089.4683177,401
1686111089.4810908,408
1686111089.492945,417
1686111089.510082,421
1686111089.521418,428
1686111089.534428,434
1686111089.5504827,440
1686111089.562732,443
1686111089.5754905,445
1686111089.591535,446
1686111089.6034446,449
1686111089.615734,448
1686111089.6324997,445
1686111089.6444764,445
1686111089.6607878,441
1686111089.6734948,439
1686111089.685495,435
1686111089.7014275,431
1686111089.7145572,428
1686111089.7267644,424
1686111089.7424932,421
1686111089.7554142,419
1686111089.7674708,417
1686111089.783862,415
1686111089.796503,413
1686111089.8128357,412
1686111089.8249164,411
1686111089.8372638,411
1686111089.8539612,410
1686111089.8658614,410
1686111089.8778627,410
1686111089.8949845,408
1686111089.907011,405
1686111089.919233,403
1686111089.934981,399
1686111089.9479249,392
1686111089.9602416,383
1686111089.9759834,372
1686111089.988919,357
1686111090.0052621,341
1686111090.0176039,324
1686111090.029483,308
1686111090.0462456,295
1686111090.0585132,286
1686111090.070486,281
1686111090.0872474,281
1686111090.0994864,283
1686111090.1111598,285
1686111090.1282413,286
1686111090.1403909,289
1686111090.1560795,291
1686111090.1691577,295
1686111090.181644,298
1686111090.197633,301
1686111090.2096279,305
1686111090.2223487,310
1686111090.2384136,314
1686111090.251023,319
1686111090.2633445,324
1686111090.2792182,328
1686111090.2913308,331
1686111090.3077245,337
1686111090.3205888,341
1686111090.332261,344
1686111090.3493412,347
1686111090.3615813,350
1686111090.3732805,352
1686111090.3902712,354
1686111090.402265,356
1686111090.414598,358
1686111090.4313407,360
1686111090.443437,362
1686111090.4552686,364
1686111090.4722652,365
1686111090.484316,366
1686111090.5006363,367
1686111090.5133264,368
1686111090.5253243,370
1686111090.5416396,370
1686111090.5536556,371
1686111090.5655794,372
1686111090.5829382,373
1686111090.5949285,374
1686111090.6076028,374
1686111090.623805,375
1686111090.635817,377
1686111090.652339,378
1686111090.664798,380
1686111090.6767786,380
1686111090.6931329,380
1686111090.7058496,380
1686111090.7177935,381
1686111090.7343204,381
1686111090.7462246,381
1686111090.7590148,380
1686111090.7759404,379
1686111090.7871714,379
1686111090.7999957,378
1686111090.815981,377
1686111090.8279283,377
1686111090.8449543,375
1686111090.8569932,375
1686111090.8689966,375
1686111090.8859334,375
1686111090.8979437,375
1686111090.910065,375
1686111090.9270105,375
1686111090.9389486,375
1686111090.9509354,376
1686111090.968004,376
1686111090.9800017,377
1686111090.9959908,376
1686111091.0089529,377
1686111091.0211122,377
1686111091.0369961,377
1686111091.0489984,378
1686111091.062023,378
1686111091.0780797,378
1686111091.09024,378
1686111091.1033888,378
1686111091.1189399,379
1686111091.1311898,379
1686111091.1469376,379
1686111091.1602776,379
1686111091.1719952,379
1686111091.188933,379
1686111091.2009466,380
1686111091.213653,380
1686111091.2296371,379
1686111091.2420788,379
1686111091.2546146,378
1686111091.2716234,378
1686111091.2827709,379
1686111091.295571,378
1686111091.3119264,377
1686111091.3243241,376
1686111091.3402884,376
1686111091.3522735,375
1686111091.3652534,375
1686111091.3814135,375
1686111091.3933194,374
1686111091.4062774,374
1686111091.422172,374
1686111091.434241,374
1686111091.4462357,374
1686111091.4632502,374
1686111091.475186,374
1686111091.491313,373
1686111091.5042703,374
1686111091.5162332,375
1686111091.5332527,375
1686111091.5452702,375
1686111091.5573025,375
1686111091.5741887,375
1686111091.5862377,376
1686111091.59849,376
1686111091.6141925,376
1686111091.6272588,376
1686111091.639178,376
1686111091.655656,376
1686111091.6675892,377
1686111091.6844215,377
1686111091.6970973,376
1686111091.7091117,376
1686111091.725023,375
1686111091.7380323,375
1686111091.7500765,375
1686111091.7665482,375
1686111091.7789073,373
1686111091.7913249,369
1686111091.8073518,368
1686111091.8202262,368
1686111091.8357291,368
1686111091.8480196,369
1686111091.8600366,368
1686111091.8773916,368
1686111091.8888042,369
1686111091.9018607,369
1686111091.917961,369
1686111091.9296222,366
1686111091.9426155,365
1686111091.9586194,364
1686111091.9710298,364
1686111091.9865932,363
1686111091.9999244,363
1686111092.0126579,363
1686111092.0283406,361
1686111092.0404978,360
1686111092.052586,360
1686111092.0692866,360
1686111092.0815954,360
1686111092.0938144,359
1686111092.1102638,359
1686111092.122286,359
1686111092.1354215,359
1686111092.1512885,359
1686111092.16331,357
1686111092.1801836,356
1686111092.1924608,356
1686111092.204331,355
1686111092.2208848,356
1686111092.2332325,356
1686111092.2457595,356
1686111092.26193,355
1686111092.2741709,355
1686111092.2859957,355
1686111092.3029366,355
1686111092.3149345,356
1686111092.3310006,356
1686111092.3439283,356
1686111092.3559375,355
1686111092.3729897,355
1686111092.3849335,355
1686111092.397152,356
1686111092.4129329,355
1686111092.4251845,355
1686111092.438213,355
1686111092.4542058,356
1686111092.4668257,356
1686111092.4789832,356
1686111092.4952407,356
1686111092.507245,356
1686111092.524206,356
1686111092.5362,357
1686111092.5483994,357
1686111092.565355,357
1686111092.5772388,357
1686111092.5892684,357
1686111092.6063435,357
1686111092.618327,357
1686111092.6314673,358
1686111092.646865,358
1686111092.6591067,358
1686111092.6758842,358
1686111092.6878676,358
1686111092.7004313,358
1686111092.716309,358
1686111092.7291245,359
1686111092.7407458,358
1686111092.757759,358
1686111092.771508,359
1686111092.7824464,359
1686111092.7987268,358
1686111092.8109705,358
1686111092.8230743,357
1686111092.83912,356
1686111092.8519545,355
1686111092.8675218,355
1686111092.8803594,354
1686111092.8931644,353
1686111092.9092612,353
1686111092.92167,353
1686111092.9339023,353
1686111092.9495196,352
1686111092.9625206,351
1686111092.974365,350
1686111092.991357,349
1686111093.0032933,349
1686111093.0195353,349
1686111093.032209,350
1686111093.044405,351
1686111093.0608332,352
1686111093.0727122,354
1686111093.0854225,355
1686111093.1021101,358
1686111093.1141346,360
1686111093.1268787,361
1686111093.142998,363
1686111093.1553733,365
1686111093.1670365,366
1686111093.183574,368
1686111093.195947,368
1686111093.2119632,368
1686111093.2246299,368
1686111093.2369318,369
1686111093.2531166,370
1686111093.265168,370
1686111093.2771654,371
1686111093.2943864,371
1686111093.3060873,371
1686111093.318776,371
1686111093.334975,371
1686111093.3467605,371
1686111093.3641224,371
1686111093.3763328,370
1686111093.3880036,369
1686111093.4040136,368
1686111093.4172933,365
1686111093.4293354,363
1686111093.445765,359
1686111093.4581478,358
1686111093.470792,358
1686111093.4870226,359
1686111093.499035,359
1686111093.5143406,360
1686111093.5278594,361
1686111093.54101,360
1686111093.556291,360
1686111093.5686085,360
1686111093.580229,360
1686111093.5974207,360
1686111093.609719,359
1686111093.622059,358
1686111093.6384146,358
1686111093.650837,359
1686111093.662817,359
1686111093.6791747,359
1686111093.6916525,360
1686111093.7081223,359
1686111093.7202945,359
1686111093.732858,359
1686111093.7484565,359
1686111093.7611077,358
1686111093.7731478,358
1686111093.7901623,359
1686111093.8023226,359
1686111093.814147,358
1686111093.831018,359
1686111093.8432066,358
1686111093.8593223,358
1686111093.871655,359
1686111093.8837945,359
1686111093.9000525,360
1686111093.9131124,360
1686111093.9250557,360
1686111093.941408,361
1686111093.9538236,362
1686111093.9657843,363
1686111093.9823134,362
1686111093.9944189,363
1686111094.0071733,362
1686111094.0227096,362
1686111094.0356247,362
1686111094.0514064,362
1686111094.0643694,362
1686111094.0765495,361
1686111094.0930479,360
1686111094.1050808,361
1686111094.1175983,361
1686111094.1340175,361
1686111094.1460044,361
1686111094.1585631,360
1686111094.1749353,361
1686111094.1872425,360
1686111094.2034485,361
1686111094.2160635,360
1686111094.227726,359
1686111094.2438662,358
1686111094.2564476,357
1686111094.2694044,356
1686111094.2855477,357
1686111094.2979789,356
1686111094.3103523,355
1686111094.3263621,355
1686111094.338423,355
1686111094.351017,355
1686111094.36736,355
1686111094.3796754,356
1686111094.395762,354
1686111094.4080095,353
1686111094.4208553,353
1686111094.4362833,352
1686111094.449127,351
1686111094.4616044,349
1686111094.4774702,347
1686111094.4900143,346
1686111094.502355,346
1686111094.5191972,346
1686111094.5312011,346
1686111094.5475185,345
1686111094.5595088,346
1686111094.5715232,346
1686111094.5885975,347
1686111094.600791,348
1686111094.6128316,349
1686111094.6288962,349
1686111094.6417825,349
1686111094.6539323,350
1686111094.6703706,352
1686111094.6828744,353
1686111094.6984534,355
1686111094.7109926,357
1686111094.7230492,359
1686111094.7397587,361
1686111094.7520218,365
1686111094.7649117,368
1686111094.7810106,370
1686111094.7933457,372
1686111094.805202,373
1686111094.8212879,374
1686111094.8338985,375
1686111094.8463132,374
1686111094.8632064,373
1686111094.874478,371
1686111094.8913012,369
1686111094.9037936,368
1686111094.9164112,366
1686111094.9321163,365
1686111094.9446633,365
1686111094.957346,363
1686111094.97371,362
1686111094.9856286,362
1686111094.9976914,362
1686111095.0145152,362
1686111095.0260735,362
1686111095.0430999,361
1686111095.0553691,360
1686111095.0677757,360
1686111095.0841448,360
1686111095.0961974,359
1686111095.1083837,358
1686111095.1252859,356
1686111095.137539,356
1686111095.1497266,355
1686111095.1662025,355
1686111095.178191,354
1686111095.1906805,353
1686111095.2071507,353
1686111095.2191439,354
1686111095.235469,355
1686111095.2480242,356
1686111095.2598863,356
1686111095.276668,356
1686111095.2887106,356
1686111095.3007245,356
1686111095.317375,356
1686111095.3302054,356
1686111095.3417034,355
1686111095.3580358,356
1686111095.3708835,357
1686111095.3864472,358
1686111095.3988562,359
1686111095.411831,359
1686111095.428409,359
1686111095.4405088,358
1686111095.4527192,359
1686111095.469309,360
1686111095.4818656,360
1686111095.492961,359
1686111095.5094762,358
1686111095.5223377,358
1686111095.5383637,359
1686111095.5510845,359
1686111095.5633214,359
1686111095.5799356,359
1686111095.5925562,358
1686111095.6036072,358
1686111095.6202283,357
1686111095.633234,357
1686111095.6453447,357
1686111095.6617322,356
1686111095.6733842,356
1686111095.6863728,357
1686111095.7021854,357
1686111095.715205,357
1686111095.7311826,357
1686111095.743228,357
1686111095.756074,357
1686111095.7721133,357
1686111095.7844293,358
1686111095.7964709,358
1686111095.81286,358
1686111095.8253746,358
1686111095.8377573,358
1686111095.85432,358
1686111095.8660724,359
1686111095.8831046,359
1686111095.8947744,359
1686111095.9067183,358
1686111095.923189,358
1686111095.9362445,358
1686111095.9484093,359
1686111095.9644892,358
1686111095.9772356,358
1686111095.9893372,357
1686111096.0056908,357
1686111096.0174592,357
1686111096.0303972,357
1686111096.046603,357
1686111096.0584474,356
1686111096.0752025,356
1686111096.0875795,356
1686111096.1002035,357
1686111096.1160414,356
1686111096.128306,356
1686111096.1411092,356
1686111096.1569877,355
1686111096.1688063,356
1686111096.181408,356
1686111096.198109,356
1686111096.210208,356
1686111096.2271843,356
1686111096.239162,356
1686111096.2512133,356
1686111096.2680771,357
1686111096.2802727,357
1686111096.292591,357
1686111096.3086123,356
1686111096.3212655,357
1686111096.3334043,357
1686111096.3492541,357
1686111096.361777,357
1686111096.3739598,357
1686111096.3904154,357
1686111096.4028397,357
1686111096.4191313,357
1686111096.431589,357
1686111096.4439142,357
1686111096.4603739,356
1686111096.4722595,357
1686111096.4850934,357
1686111096.501417,357
1686111096.5135775,357
1686111096.52607,356
1686111096.542315,356
1686111096.5543401,355
1686111096.570541,355
1686111096.5831392,355
1686111096.5954764,354
1686111096.612201,353
1686111096.6242614,353
1686111096.636404,352
1686111096.6528022,352
1686111096.6652248,352
1686111096.6776326,351
1686111096.6942253,351
1686111096.7063587,351
1686111096.7224767,352
1686111096.7341373,352
1686111096.747208,353
1686111096.7634768,352
1686111096.7751126,353
1686111096.7881145,353
1686111096.8044221,354
1686111096.8164253,354
1686111096.8289325,355
1686111096.8450322,354
1686111096.8577955,355
1686111096.8698113,355
1686111096.8862016,356
1686111096.8985825,357
1686111096.9150727,358
1686111096.9273226,358
1686111096.939367,358
1686111096.9558952,359
1686111096.96829,360
1686111096.9803898,360
1686111096.9969203,360
1686111097.0092046,360
1686111097.0214832,360
1686111097.0376663,361
1686111097.049877,362
1686111097.066261,362
1686111097.0788784,362
1686111097.0912318,362
1686111097.1074567,362
1686111097.1194346,363
1686111097.1323612,363
1686111097.147894,363
1686111097.1608,363
1686111097.1737254,363
1686111097.189123,363
1686111097.2014267,364
1686111097.213348,364
1686111097.2300386,364
1686111097.2428737,361
1686111097.2586415,361
1686111097.2715025,361
1686111097.2835243,361
1686111097.299654,361
1686111097.3120122,361
1686111097.3242855,361
1686111097.3402882,361
1686111097.3526876,361
1686111097.365368,361
1686111097.3813622,361
1686111097.3937976,361
1686111097.4095793,360
1686111097.4230733,361
1686111097.4351063,361
1686111097.45128,361
1686111097.4632947,361
1686111097.4761455,361
1686111097.49236,361
1686111097.5043232,361
1686111097.5162947,361
1686111097.5337424,361
1686111097.545266,361
1686111097.5611544,361
1686111097.5741944,360
1686111097.5862036,360
1686111097.6028209,361
1686111097.6155384,361
1686111097.6284726,361
1686111097.6438556,360
1686111097.6556828,360
1686111097.6680973,360
1686111097.6844654,361
1686111097.6971252,361
1686111097.709582,361
1686111097.7261932,360
1686111097.7387428,360
1686111097.7539284,361
1686111097.7671857,361
1686111097.779345,361
1686111097.795629,361
1686111097.8075151,361
1686111097.8195753,361
1686111097.836267,362
1686111097.8483899,362
1686111097.8608384,362
1686111097.8772843,362
1686111097.8900235,362
1686111097.9060245,362
1686111097.9181075,362
1686111097.930029,362
1686111097.9466636,361
1686111097.959149,361
1686111097.9716723,361
1686111097.9876804,361
1686111098.000002,361
1686111098.012669,361
1686111098.0287147,361
1686111098.0414205,360
1686111098.053547,360
1686111098.0694077,361
1686111098.0824223,361
1686111098.098408,360
1686111098.110738,360
1686111098.1234105,360
1686111098.1399462,360
1686111098.1520047,360
1686111098.1639943,360
1686111098.180053,360
1686111098.1930044,359
1686111098.205149,359
1686111098.22105,359
1686111098.2339916,360
1686111098.2500892,360
1686111098.2619917,360
1686111098.2744238,359
1686111098.2913043,359
1686111098.3035343,359
1686111098.3150575,359
1686111098.3320415,359
1686111098.3442924,359
1686111098.3564885,358
1686111098.3734837,358
1686111098.3850663,359
1686111098.3970308,359
1686111098.4140244,359
1686111098.4259813,359
1686111098.4429948,358
1686111098.454862,359
1686111098.4674387,359
1686111098.4834194,359
1686111098.4954858,359
1686111098.508487,358
1686111098.5244257,359
1686111098.5364196,359
1686111098.5494285,359
1686111098.5654247,359
1686111098.5780714,359
1686111098.5941653,358
1686111098.6063912,358
1686111098.6190865,358
1686111098.6353219,358
1686111098.6475685,359
1686111098.6601415,358
1686111098.6757858,357
1686111098.6884725,357
1686111098.7005072,357
1686111098.717537,357
1686111098.7294722,357
1686111098.7454767,357
1686111098.7578282,357
1686111098.7699625,357
1686111098.7864802,357
1686111098.7991495,357
1686111098.811134,357
1686111098.8272204,357
1686111098.8401363,357
1686111098.852287,357
1686111098.868153,357
1686111098.8809462,357
1686111098.8931863,357
1686111098.9091694,357
1686111098.9215074,357
1686111098.9382925,357
1686111098.9503932,357
1686111098.9632363,357
1686111098.9793499,356
1686111098.9911876,356
1686111099.0038254,357
1686111099.0198789,357
1686111099.0328133,358
1686111099.0448363,357
1686111099.0611036,357
1686111099.0734098,357
1686111099.0891416,358
1686111099.1020863,358
1686111099.1143694,359
1686111099.1303542,358
1686111099.143175,358
1686111099.1550765,358
1686111099.1720977,358
1686111099.1840909,358
1686111099.1960802,358
1686111099.2120843,358
1686111099.2249267,358
1686111099.2378085,357
1686111099.253858,357
1686111099.2667964,358
1686111099.282925,357
1686111099.294858,357
1686111099.3067913,357
1686111099.3228061,356
1686111099.3358097,357
1686111099.347799,357
1686111099.3637164,357
1686111099.3767617,357
1686111099.388758,358
1686111099.405143,359
1686111099.4178326,360
1686111099.4337554,361
1686111099.4458253,361
1686111099.4581301,362
1686111099.4749043,362
1686111099.4867706,363
1686111099.4990673,363
1686111099.5158615,363
1686111099.5277555,363
1686111099.5402882,363
1686111099.5567603,363
1686111099.569044,364
1686111099.5817678,364
1686111099.598001,364
1686111099.609987,362
1686111099.6261337,360
1686111099.6387668,359
1686111099.650756,357
1686111099.6673079,355
1686111099.6793973,352
1686111099.692419,348
1686111099.708404,344
1686111099.7203937,342
1686111099.7324517,341
1686111099.7494016,339
1686111099.761451,337
1686111099.7774851,336
1686111099.789511,337
1686111099.8024561,337
1686111099.8184972,338
1686111099.8304944,339
1686111099.842474,340
1686111099.8595538,341
1686111099.871822,342
1686111099.883894,343
1686111099.900309,345
1686111099.9129252,346
1686111099.9288883,347
1686111099.9410636,348
1686111099.9533134,349
1686111099.9703417,350
1686111099.9824204,350
1686111099.99474,351
1686111100.0113435,351
1686111100.0234587,352
1686111100.035404,353
1686111100.052348,354
1686111100.064346,355
1686111100.077347,355
1686111100.0933638,355
1686111100.1058455,355
1686111100.1219404,356
1686111100.133778,356
1686111100.1467817,357
1686111100.1628795,356
1686111100.1747818,356
1686111100.187839,357
1686111100.2038598,357
1686111100.2158453,358
1686111100.2287703,358
1686111100.24477,358
1686111100.2568314,358
1686111100.2728457,358
1686111100.2858505,359
1686111100.2981524,359
1686111100.3141174,359
1686111100.326786,359
1686111100.3387678,358
1686111100.355311,360
1686111100.367771,362
1686111100.3797677,363
1686111100.3967702,365
1686111100.4087365,367
1686111100.420991,369
1686111100.4371278,372
1686111100.4497516,376
1686111100.4657402,380
1686111100.4782448,383
1686111100.4907386,386
1686111100.5069833,391
1686111100.5187404,398
1686111100.5318053,405
1686111100.5478814,413
1686111100.559755,421
1686111100.5728102,429
1686111100.5887442,437
1686111100.6007547,444
1686111100.616762,449
1686111100.6297653,452
1686111100.6420882,452
1686111100.6577675,451
1686111100.6707942,448
1686111100.6832614,443
1686111100.6991568,436
1686111100.7128227,429
1686111100.7240334,421
1686111100.7406642,413
1686111100.7527997,404
1686111100.7651129,397
1686111100.7817519,389
1686111100.793738,380
1686111100.8099387,373
1686111100.8223991,367
1686111100.8339584,363
1686111100.8509398,358
1686111100.8630075,354
1686111100.8753211,351
1686111100.8919442,347
1686111100.9040039,345
1686111100.9163787,341
1686111100.9330997,337
1686111100.9452493,332
1686111100.9614215,326
1686111100.9741807,320
1686111100.9861896,314
1686111101.0021672,307
1686111101.015167,301
1686111101.0271006,296
1686111101.043101,293
1686111101.0561674,291
1686111101.0681052,292
1686111101.0841115,293
1686111101.0964403,296
1686111101.1092854,298
1686111101.1254423,300
1686111101.137603,304
1686111101.1543424,308
1686111101.1662755,311
1686111101.1786094,313
1686111101.195365,316
1686111101.2072906,318
1686111101.2196178,321
1686111101.2362995,325
1686111101.248297,329
1686111101.2613132,333
1686111101.2765045,336
1686111101.2892888,338
1686111101.3056126,341
1686111101.318285,343
1686111101.330289,346
1686111101.3467326,349
1686111101.3584135,351
1686111101.3714123,352
1686111101.3877456,354
1686111101.3994188,357
1686111101.4117537,360
1686111101.428407,362
1686111101.4412508,366
1686111101.4567742,370
1686111101.4696066,374
1686111101.48173,378
1686111101.4985042,381
1686111101.5111163,383
1686111101.5227773,386
1686111101.5388956,386
1686111101.5511363,389
1686111101.5637553,389
1686111101.580158,389
1686111101.5921333,387
1686111101.6041481,386
1686111101.6212273,384
1686111101.6332252,382
1686111101.6492317,378
1686111101.6622376,376
1686111101.6742232,375
1686111101.6902952,371
1686111101.7033002,371
1686111101.7152493,369
1686111101.7312543,369
1686111101.7435699,369
1686111101.7563095,367
1686111101.7723234,369
1686111101.784252,370
1686111101.8012466,372
1686111101.8134835,373
1686111101.8253534,374
1686111101.8423662,374
1686111101.8543532,374
1686111101.866354,372
1686111101.883366,370
1686111101.895452,365
1686111101.90773,358
1686111101.9237976,349
1686111101.936728,340
1686111101.94886,328
1686111101.9646494,317
1686111101.977581,307
1686111101.9945986,300
1686111102.0055766,298
1686111102.0178502,299
1686111102.0347922,301
1686111102.0467927,305
1686111102.058792,307
1686111102.0758016,309
1686111102.087968,312
1686111102.100114,312
1686111102.1159937,314
1686111102.1289802,314
1686111102.1453125,314
1686111102.1570597,315
1686111102.1699972,317
1686111102.1862895,319
1686111102.1989849,321
1686111102.2109787,324
1686111102.2269883,324
1686111102.238986,327
1686111102.251988,329
1686111102.2681477,330
1686111102.280339,332
1686111102.2930295,333
1686111102.309304,334
1686111102.3213813,335
1686111102.337385,335
1686111102.3500683,336
1686111102.3620753,336
1686111102.3788538,336
1686111102.3910506,337
1686111102.403755,338
1686111102.419467,340
1686111102.432439,342
1686111102.44444,344
1686111102.4607005,345
1686111102.4727633,347
1686111102.4894617,349
1686111102.5014346,352
1686111102.5134346,354
1686111102.5303862,355
1686111102.542718,356
1686111102.5546591,356
1686111102.5713823,357
1686111102.5833726,358
1686111102.5956616,358
1686111102.612391,358
1686111102.6246197,357
1686111102.6403797,357
1686111102.6533856,358
1686111102.6653717,358
1686111102.6817515,358
1686111102.6943843,358
1686111102.7065606,357
1686111102.7224448,357
1686111102.7343736,357
1686111102.7473938,357
1686111102.763379,357
1686111102.7763803,357
1686111102.788467,356
1686111102.8047235,356
1686111102.8162613,357
1686111102.8331985,356
1686111102.8455193,356
1686111102.8582036,355
1686111102.8744833,355
1686111102.8872168,355
1686111102.8992,356
1686111102.9154465,356
1686111102.9274476,356
1686111102.9395902,357
1686111102.9565856,358
1686111102.9686313,359
1686111102.9849088,359
1686111102.9975946,360
1686111103.009586,359
1686111103.0258324,359
1686111103.03783,360
1686111103.049847,360
1686111103.0668547,360
1686111103.079113,360
1686111103.091306,360
1686111103.1078954,359
1686111103.1199265,359
1686111103.1321447,359
1686111103.1488402,358
1686111103.1611083,358
1686111103.1771653,357
1686111103.1897864,357
1686111103.2021475,357
1686111103.218011,357
1686111103.2307532,357
1686111103.2431798,357
1686111103.2590666,356
1686111103.271527,357
1686111103.2842271,357
1686111103.300689,358
1686111103.312692,358
1686111103.3282356,357
1686111103.3409462,357
1686111103.3540783,358
1686111103.370165,358
1686111103.3816233,358
1686111103.3947115,359
1686111103.4108496,358
1686111103.4233854,358
1686111103.4355133,359
1686111103.4521801,360
1686111103.4641283,360
1686111103.4798317,360
1686111103.4929836,360
1686111103.5050673,360
1686111103.5208569,361
1686111103.533848,361
1686111103.545532,361
1686111103.5618591,360
1686111103.5748067,360
1686111103.587006,360
1686111103.6035597,360
1686111103.6155043,360
1686111103.6283364,360
1686111103.644569,360
1686111103.6568918,360
1686111103.6732252,360
1686111103.685392,361
1686111103.6978245,361
1686111103.7144551,360
1686111103.7266257,360
1686111103.7383397,360
1686111103.7543342,360
1686111103.767268,360
1686111103.7796052,360
1686111103.7953086,360
1686111103.8083124,360
1686111103.82431,360
1686111103.836325,360
1686111103.8493698,361
1686111103.8653078,360
1686111103.8773613,360
1686111103.890361,360
1686111103.9064898,359
1686111103.9182887,359
1686111103.9303436,360
1686111103.9472885,360
1686111103.9593613,359
1686111103.971284,359
1686111103.988614,359
1686111104.000356,360
1686111104.0167425,360
1686111104.0297196,360
1686111104.0410283,360
1686111104.0580156,360
1686111104.0700543,360
1686111104.082084,361
1686111104.099067,362
1686111104.1112072,362
1686111104.123808,361
1686111104.139751,361
1686111104.1518233,361
1686111104.1677535,361
1686111104.1807528,361
1686111104.192811,360
1686111104.2098243,359
1686111104.2211683,359
1686111104.2342546,358
1686111104.2504184,358
1686111104.262917,357
1686111104.2753267,357
1686111104.2913084,356
1686111104.3036716,356
1686111104.3196561,356
1686111104.332609,357
1686111104.3447778,357
1686111104.360598,357
1686111104.3734884,358
1686111104.3854923,359
1686111104.401488,360
1686111104.4144895,361
1686111104.4265416,361
1686111104.4427562,362
1686111104.4554882,362
1686111104.4673767,363
1686111104.484064,364
1686111104.4960155,365
1686111104.5121922,365
1686111104.5242467,365
1686111104.5371969,365
1686111104.5531886,366
1686111104.5662773,367
1686111104.5783136,367
1686111104.5946207,366
1686111104.606356,366
1686111104.6192997,365
1686111104.6353712,366
1686111104.6472974,366
1686111104.663373,365
1686111104.6762338,365
1686111104.6882398,364
1686111104.705223,365
1686111104.717299,365
1686111104.729221,365
1686111104.7462225,365
1686111104.7582822,364
1686111104.7702806,365
1686111104.7872856,365
1686111104.7992847,365
1686111104.8112822,365
1686111104.8282826,365
1686111104.840287,365
1686111104.8565645,366
1686111104.8689628,366
1686111104.8810117,366
1686111104.8979561,366
1686111104.9099517,366
1686111104.9219518,365
1686111104.9379494,365
1686111104.9509494,366
1686111104.9629643,366
1686111104.9795742,365
1686111104.9915698,365
1686111105.0076766,365
1686111105.0207264,365
1686111105.0324388,365
1686111105.0490646,365
1686111105.0610697,365
1686111105.0735452,364
1686111105.0895424,364
1686111105.1025453,364
1686111105.1145396,364
1686111105.1305413,364
1686111105.1435454,363
1686111105.155584,362
1686111105.1715415,362
1686111105.1845415,362
1686111105.2005956,362
1686111105.2125475,362
1686111105.2255394,361
1686111105.2415438,362
1686111105.2535393,362
1686111105.2665415,362
1686111105.2823496,362
1686111105.2943487,362
1686111105.30735,362
1686111105.3233466,362
1686111105.3353496,362
1686111105.3523595,362
1686111105.3643682,363
1686111105.3764079,362
1686111105.3933694,361
1686111105.4054027,361
1686111105.4174063,361
1686111105.4343512,362
1686111105.4463227,362
1686111105.4583855,361
1686111105.475335,361
1686111105.4873252,361
1686111105.4997027,361
1686111105.515518,361
1686111105.528386,361
1686111105.5444458,361
1686111105.5570602,361
1686111105.5696464,361
1686111105.5856764,362
1686111105.5976765,362
1686111105.6101112,362
1686111105.6267369,361
1686111105.638937,361
1686111105.6513221,362
1686111105.6679401,362
1686111105.6796253,362
1686111105.696513,362
1686111105.7087278,361
1686111105.7202253,361
1686111105.7372236,361
1686111105.7489798,362
1686111105.762074,362
1686111105.777905,361
1686111105.790258,362
1686111105.8022366,363
1686111105.8189485,367
1686111105.8309498,363
1686111105.8469424,363
1686111105.8599436,363
1686111105.8722508,362
1686111105.8883123,363
1686111105.9015021,365
1686111105.9132514,362
1686111105.9294193,359
1686111105.9423988,358
1686111105.954537,358
1686111105.97052,358
1686111105.9825196,358
1686111105.9955223,358
1686111106.011521,358
1686111106.023514,357
1686111106.040457,357
1686111106.0524755,358
1686111106.0646033,358
1686111106.0805488,358
1686111106.0935462,358
1686111106.1056044,357
1686111106.122909,357
1686111106.1344323,358
1686111106.146937,358
1686111106.1629486,357
1686111106.1756628,357
1686111106.1913142,356
1686111106.2043293,356
1686111106.2167802,356
1686111106.2331686,356
1686111106.2445848,356
1686111106.2575884,355
1686111106.2734025,355
1686111106.2863798,355
1686111106.2977972,355
1686111106.3142073,355
1686111106.3272758,354
1686111106.3391173,354
1686111106.3551483,354
1686111106.3681552,355
1686111106.3841631,355
1686111106.3961537,355
1686111106.4092891,355
1686111106.4250968,355
1686111106.4371552,355
1686111106.4501562,356
1686111106.4661028,356
1686111106.4782884,356
1686111106.4902878,356
1686111106.5067542,356
1686111106.5197017,356
1686111106.535676,356
1686111106.547992,357
1686111106.5599768,356
1686111106.577012,356
1686111106.5890095,356
1686111106.6010833,357
1686111106.6180696,358
1686111106.6300726,357
1686111106.6421242,357
1686111106.6590788,358
1686111106.6714876,358
1686111106.6865332,359
1686111106.6995203,359
1686111106.7115324,360
1686111106.7285178,360
1686111106.7405193,360
1686111106.752532,360
1686111106.7695882,361
1686111106.7815812,362
1686111106.7935708,362
1686111106.8103244,362
1686111106.8228397,362
1686111106.8351455,363
1686111106.850898,363
1686111106.8639028,364
1686111106.8795438,364
1686111106.8925505,364
1686111106.9045467,364
1686111106.9205422,364
1686111106.9335437,365
1686111106.9456499,366
1686111106.962063,366
1686111106.9737072,366
1686111106.9866729,366
1686111107.0027134,367
1686111107.0146625,368
1686111107.0313632,368
1686111107.043705,368
1686111107.0556502,368
1686111107.0727024,367
1686111107.0849102,368
1686111107.0967007,368
1686111107.1137052,368
1686111107.125707,366
1686111107.137759,366
1686111107.154627,366
1686111107.166338,366
1686111107.1790304,366
1686111107.195027,365
1686111107.2080157,364
1686111107.2238786,364
1686111107.2358332,364
1686111107.248821,364
1686111107.2648351,364
1686111107.277478,363
1686111107.2895007,363
1686111107.3055398,363
1686111107.318479,363
1686111107.3305418,364
1686111107.3466115,364
1686111107.3594778,363
1686111107.3754933,363
1686111107.3874936,363
1686111107.4004803,363
1686111107.4164934,363
1686111107.4284914,363
1686111107.44131,362
1686111107.4577816,361
1686111107.4699056,360
1686111107.4818957,360
1686111107.4985728,360
1686111107.5106852,359
1686111107.5263667,358
1686111107.539353,358
1686111107.5520709,357
1686111107.5683546,358
1686111107.5803232,357
1686111107.5923312,356
1686111107.6093886,356
1686111107.6214604,356
1686111107.6338592,356
1686111107.6499057,356
1686111107.662393,356
1686111107.6749687,356
1686111107.6913707,355
1686111107.7033057,356
1686111107.7201242,356
1686111107.732352,356
1686111107.7438426,356
1686111107.7606077,355
1686111107.7733505,356
1686111107.784807,356
1686111107.8020465,356
1686111107.8141005,358
1686111107.8263257,361
1686111107.8429544,363
1686111107.855403,359
1686111107.8707952,360
1686111107.8845916,361
1686111107.8955302,362
1686111107.9121206,361
1686111107.924423,359
1686111107.936864,356
1686111107.953384,356
1686111107.9655235,356
1686111107.9775648,356
1686111107.994155,356
1686111108.0064733,356
1686111108.0188234,357
1686111108.0353723,358
1686111108.0473588,358
1686111108.063421,358
1686111108.0759487,358
1686111108.0882666,358
1686111108.104243,357
1686111108.117272,357
1686111108.128806,357
1686111108.145469,357
1686111108.1575146,357
1686111108.1703913,357
1686111108.1868446,357
1686111108.1986687,357
1686111108.2150044,357
1686111108.2273502,357
1686111108.2394166,357
1686111108.256284,357
1686111108.2689853,357
1686111108.2806356,357
1686111108.2967787,357
1686111108.3097696,358
1686111108.3217845,358
1686111108.337775,358
1686111108.350634,359
1686111108.3628142,359
1686111108.379194,358
1686111108.39152,358
1686111108.407324,358
1686111108.4203322,359
1686111108.4328797,359
1686111108.4489088,360
1686111108.4617825,360
1686111108.4735546,357
1686111108.489597,358
1686111108.5023336,359
1686111108.5138578,360
1686111108.530249,362
1686111108.5424585,361
1686111108.5595548,360
1686111108.5714078,360
1686111108.5842578,361
1686111108.600279,361
1686111108.6129446,362
1686111108.6252673,362
1686111108.64145,361
1686111108.6539912,363
1686111108.665691,364
1686111108.6825006,361
1686111108.6946173,364
1686111108.7106435,365
1686111108.7227652,368
1686111108.7356997,370
1686111108.7518725,370
1686111108.7637243,374
1686111108.7768128,377
1686111108.7927692,379
1686111108.8057446,379
1686111108.8170183,368
1686111108.8338253,366
1686111108.8455126,367
1686111108.8585095,364
1686111108.87489,358
1686111108.8865027,357
1686111108.903523,358
1686111108.9161136,359
1686111108.9283652,359
1686111108.9445322,359
1686111108.956728,359
1686111108.9690623,359
1686111108.9855156,360
1686111108.9975896,361
1686111109.0103488,361
1686111109.026173,361
1686111109.0387359,362
1686111109.054709,362
1686111109.0667992,363
1686111109.0793123,363
1686111109.0961473,364
1686111109.1079834,364
1686111109.1203525,364
1686111109.1369307,365
1686111109.149444,366
1686111109.161798,367
1686111109.1772346,367
1686111109.1903846,367
1686111109.2025175,367
1686111109.218945,368
1686111109.2309744,368
1686111109.247298,368
1686111109.2598703,368
1686111109.2723668,369
1686111109.2884514,369
1686111109.3011186,370
1686111109.3131635,370
1686111109.3291316,370
1686111109.341612,370
1686111109.3534245,371
1686111109.3707392,372
1686111109.3827364,370
1686111109.3984156,369
1686111109.411411,369
1686111109.42335,369
1686111109.440341,370
1686111109.452287,370
1686111109.4643326,372
1686111109.4811215,371
1686111109.4932299,371
1686111109.5054572,372
1686111109.522121,372
1686111109.534047,372
1686111109.54668,373
1686111109.5626745,374
1686111109.574735,374
1686111109.5916796,374
1686111109.603676,373
1686111109.6160045,369
1686111109.6326818,368
1686111109.6446815,368
1686111109.656945,368
1686111109.6736789,368
1686111109.68524,368
1686111109.6981554,369
1686111109.714154,369
1686111109.7261484,369
1686111109.74315,368
1686111109.7551482,369
1686111109.7671473,369
1686111109.7841294,369
1686111109.795761,370
1686111109.8087873,369
1686111109.8248842,370
1686111109.8368716,369
1686111109.848811,370
1686111109.865931,370
1686111109.8778589,371
1686111109.8939252,370
1686111109.906927,371
1686111109.918974,371
1686111109.9359136,372
1686111109.9479127,372
1686111109.9609177,372
1686111109.9769142,372
1686111109.988984,372
1686111110.000544,374
1686111110.0176423,375
1686111110.0298831,375
1686111110.042169,372
1686111110.058776,372
1686111110.0706568,373
1686111110.0871427,374
1686111110.0993798,374
1686111110.1112478,375
1686111110.1277878,375
1686111110.1401727,375
1686111110.1528542,374
1686111110.1688488,375
1686111110.1815379,375
1686111110.193534,374
1686111110.2096,373
1686111110.2225366,373
1686111110.2386954,373
1686111110.2505372,373
1686111110.2631128,373
1686111110.279547,369
1686111110.2921937,369
1686111110.3041441,369
1686111110.3208175,370
1686111110.332906,371
1686111110.3448718,371
1686111110.3618157,370
1686111110.373839,369
1686111110.3861754,370
1686111110.4028218,370
1686111110.4148183,371
1686111110.4308255,370
1686111110.4429283,369
1686111110.4558957,367
1686111110.472825,366
1686111110.4846215,365
1686111110.496688,364
1686111110.512538,362
1686111110.5256076,359
1686111110.537535,357
1686111110.5535903,356
1686111110.566533,355
1686111110.5826657,354
1686111110.5945442,353
1686111110.607531,352
1686111110.6235988,351
1686111110.6358457,353
1686111110.6485336,352
1686111110.6645381,353
1686111110.6768463,353
1686111110.6885912,354
1686111110.7055268,350
1686111110.7175953,350
1686111110.7335546,351
1686111110.7468565,351
1686111110.7588553,352
1686111110.7749186,352
1686111110.7875872,353
1686111110.7995877,353
1686111110.8163757,353
1686111110.828434,354
1686111110.8406456,354
1686111110.8572934,354
1686111110.8692927,355
1686111110.881351,357
1686111110.8982928,358
1686111110.910294,360
1686111110.9263043,362
1686111110.9392955,365
1686111110.951375,368
1686111110.9672885,370
1686111110.9802933,372
1686111110.992782,374
1686111111.0082977,375
1686111111.0212934,376
1686111111.0329068,377
1686111111.0493276,378
1686111111.0622797,377
1686111111.0782657,377
1686111111.0902643,375
1686111111.1032732,373
1686111111.1192627,373
1686111111.13227,370
1686111111.1443398,365
1686111111.1600358,362
1686111111.1725602,361
1686111111.1842408,363
1686111111.2012215,372
1686111111.2135286,383
1686111111.2257845,397
1686111111.2424207,412
1686111111.25443,424
1686111111.270285,436
1686111111.2832277,448
1686111111.29565,457
1686111111.3117115,464
1686111111.3239982,468
1686111111.3366463,471
1686111111.3528354,472
1686111111.3650038,470
1686111111.3776536,465
1686111111.3931942,459
1686111111.4058108,445
1686111111.42212,436
1686111111.434796,428
1686111111.4478016,419
1686111111.4633482,410
1686111111.4759855,401
1686111111.4878285,394
1686111111.5044434,387
1686111111.516844,382
1686111111.5286474,378
1686111111.5447047,375
1686111111.5576384,371
1686111111.5698113,370
1686111111.5868688,368
1686111111.598803,367
1686111111.6148157,365
1686111111.6272337,362
1686111111.6398098,358
1686111111.6558957,354
1686111111.66843,350
1686111111.6804287,343
1686111111.6965866,335
1686111111.7085836,326
1686111111.7216542,318
1686111111.7375667,311
1686111111.7498877,305
1686111111.7665713,301
1686111111.7785838,297
1686111111.7908962,294
1686111111.8075721,292
1686111111.819666,291
1686111111.8322158,290
1686111111.8482819,290
1686111111.8607113,290
1686111111.873289,290
1686111111.8893054,292
1686111111.9012895,295
1686111111.9176586,297
1686111111.9303658,301
1686111111.9423466,303
1686111111.9582875,308
1686111111.971362,313
1686111111.9832842,320
1686111112.000036,326
1686111112.0122054,333
1686111112.023958,342
1686111112.0412104,353
1686111112.0530229,365
1686111112.0652878,378
1686111112.0819614,390
1686111112.094145,399
1686111112.1102452,407
1686111112.123142,415
1686111112.1349628,420
1686111112.1516347,423
1686111112.163807,426
1686111112.176637,425
1686111112.1924334,426
1686111112.2047887,426
1686111112.2168071,425
1686111112.2334363,425
1686111112.2454877,421
1686111112.261503,418
1686111112.2744546,418
1686111112.2865956,418
1686111112.3034525,419
1686111112.3154366,419
1686111112.3274395,420
1686111112.3435013,419
1686111112.356458,417
1686111112.3684351,416
1686111112.384779,415
1686111112.3975284,411
1686111112.4094524,408
1686111112.4254367,402
1686111112.4384363,396
1686111112.4544926,386
1686111112.4664404,375
1686111112.4794388,361
1686111112.4955897,346
1686111112.5077882,330
1686111112.5194352,312
1686111112.5367799,300
1686111112.5485337,288
1686111112.561253,279
1686111112.5772672,273
1686111112.5892763,270
1686111112.60563,269
1686111112.6184,270
1686111112.6305873,272
1686111112.6473432,274
1686111112.659441,277
1686111112.671334,280
1686111112.6880424,285
1686111112.7005942,289
1686111112.7126732,292
1686111112.7292676,297
1686111112.7411203,301
1686111112.7571816,304
1686111112.770129,310
1686111112.7822,315
1686111112.7986574,320
1686111112.8106582,324
1686111112.8227742,327
1686111112.8398468,330
1686111112.8518655,334
1686111112.8641043,337
1686111112.8797767,339
1686111112.8923194,341
1686111112.9053178,344
1686111112.9214556,347
1686111112.9336355,349
1686111112.9503174,351
1686111112.9629233,353
1686111112.9750285,354
1686111112.9907384,356
1686111113.0036707,359
1686111113.0157511,361
1686111113.031731,364
1686111113.044671,366
1686111113.0567553,367
1686111113.0726712,368
1686111113.0856717,370
1686111113.1006668,371
1686111113.1136675,372
1686111113.1257615,372
1686111113.1426718,371
1686111113.1552117,372
1686111113.1674888,372
1686111113.1832306,372
1686111113.1960635,372
1686111113.2081566,370
1686111113.2241728,369
1686111113.2362146,370
1686111113.2491555,370
1686111113.265156,368
1686111113.2781558,367
1686111113.2942898,365
1686111113.3073158,365
1686111113.3185449,365
1686111113.335458,366
1686111113.3472726,367
1686111113.359907,367
1686111113.3759878,366
1686111113.3879168,366
1686111113.4000757,366
1686111113.4171617,366
1686111113.4293973,364
1686111113.4450717,363
1686111113.4580913,363
1686111113.470355,362
1686111113.4870756,362
1686111113.4983726,362
1686111113.5114446,361
1686111113.5276923,360
1686111113.5402489,359
1686111113.55238,358
1686111113.5686982,358
1686111113.580396,358
1686111113.593382,358
1686111113.6093812,358
1686111113.6214533,359
1686111113.6379113,360
1686111113.650281,361
1686111113.6627736,361
1686111113.6794739,361
1686111113.6914756,361
1686111113.703955,360
1686111113.7201402,360
1686111113.7319484,360
1686111113.7450523,359
1686111113.7612453,359
1686111113.7729516,358
1686111113.7899458,358
1686111113.802428,358
1686111113.8145049,358
1686111113.8307545,357
1686111113.842658,357
1686111113.8553572,356
1686111113.871068,357
1686111113.8840995,358
1686111113.8957765,359
1686111113.9130476,360
1686111113.924924,360
1686111113.9411485,360
1686111113.9537961,361
1686111113.9652379,362
1686111113.9821095,362
1686111113.9943054,362
1686111114.0069802,362
1686111114.0229914,363
1686111114.0349755,364
1686111114.047968,364
1686111114.0640302,364
1686111114.0760305,363
1686111114.08912,362
1686111114.1045392,362
1686111114.1175237,363
1686111114.1338763,363
1686111114.1462638,363
1686111114.158044,362
1686111114.1747687,363
1686111114.1874235,363
1686111114.1993363,364
1686111114.2160156,364
1686111114.2282596,365
1686111114.2400153,365
1686111114.2570205,366
1686111114.2690876,367
1686111114.2850046,368
1686111114.2975297,370
1686111114.3102007,371
1686111114.3263173,371
1686111114.3382607,372
1686111114.351209,373
1686111114.367275,374
1686111114.3795273,375
1686111114.3922,374
1686111114.4083862,374
1686111114.4206524,375
1686111114.4329278,375
1686111114.4493852,376
1686111114.4615712,377
1686111114.4774022,378
1686111114.4903874,378
1686111114.5027862,379
1686111114.518867,380
1686111114.5314448,381
1686111114.5434375,381
1686111114.559435,381
1686111114.5719926,381
1686111114.5844433,382
1686111114.6009011,382
1686111114.6129332,381
1686111114.6294432,380
1686111114.6415684,380
1686111114.6535819,379
1686111114.6704617,379
1686111114.682501,377
1686111114.6953359,376
1686111114.7114658,374
1686111114.723718,373
1686111114.735504,372
1686111114.7524443,371
1686111114.7644587,371
1686111114.7764516,370
1686111114.7934613,369
1686111114.8055265,367
1686111114.8214514,366
1686111114.8344479,366
1686111114.8465283,366
1686111114.8630774,365
1686111114.8751469,365
1686111114.8873825,364
1686111114.904054,364
1686111114.9164116,364
1686111114.9290764,364
1686111114.9450302,364
1686111114.9571762,364
1686111114.973242,365
1686111114.9855123,366
1686111114.9973848,366
1686111115.0145593,365
1686111115.026523,365
1686111115.0392058,364
1686111115.0555158,364
1686111115.0686438,365
1686111115.0796945,365
1686111115.0966794,364
1686111115.108341,364
1686111115.124339,364
1686111115.137338,364
1686111115.1496615,365
1686111115.166031,365
1686111115.1780198,365
1686111115.1900249,364
1686111115.2064753,365
1686111115.2194703,365
1686111115.2315762,366
1686111115.2480166,366
1686111115.2600024,367
1686111115.2724752,367
1686111115.2884142,368
1686111115.3012688,368
1686111115.317666,369
1686111115.3297157,369
1686111115.3417165,369
1686111115.3580377,369
1686111115.3701713,370
1686111115.3831735,370
1686111115.39958,371
1686111115.4115636,371
1686111115.423627,371
1686111115.440582,371
1686111115.4525654,372
1686111115.4686334,372
1686111115.4806318,373
1686111115.4935663,373
1686111115.5098417,373
1686111115.5219076,374
1686111115.533913,375
1686111115.550847,376
1686111115.562905,377
1686111115.5749161,377
1686111115.591846,376
1686111115.6045144,377
1686111115.6166348,377
1686111115.632526,377
1686111115.6445835,377
1686111115.6618888,376
1686111115.6736434,376
1686111115.68584,376
1686111115.7030349,375
1686111115.7151709,376
1686111115.7276518,375
1686111115.7435484,375
1686111115.7553687,375
1686111115.7680364,376
1686111115.7842052,377
1686111115.7967796,378
1686111115.8132205,378
1686111115.8254938,376
1686111115.8374877,376
1686111115.8544302,377
1686111115.8665345,378
1686111115.8788025,379
1686111115.8945627,377
1686111115.9075613,374
1686111115.9195478,373
1686111115.9356463,373
1686111115.9481897,373
1686111115.9649491,373
1686111115.97691,373
1686111115.9889112,373
1686111116.0059607,374
1686111116.0182364,376
1686111116.030335,376
1686111116.0469944,376
1686111116.0583878,376
1686111116.0715017,374
1686111116.0869744,373
1686111116.0993838,372
1686111116.1129475,370
1686111116.1286602,368
1686111116.1410465,366
1686111116.1573632,364
1686111116.1696162,363
1686111116.1812012,362
1686111116.1980224,361
1686111116.2097812,359
1686111116.2229216,358
1686111116.2385228,358
1686111116.251442,358
1686111116.2630486,359
1686111116.2801552,359
1686111116.2921557,359
1686111116.3078456,359
1686111116.3208842,360
1686111116.3328822,361
1686111116.3497589,362
1686111116.3622851,363
1686111116.3744009,363
1686111116.3906837,364
1686111116.4026113,365
1686111116.414607,366
1686111116.4319968,367
1686111116.4441288,368
1686111116.455612,368
1686111116.472972,367
1686111116.4852607,368
1686111116.5009587,367
1686111116.5134025,367
1686111116.525413,366
1686111116.5421796,364
1686111116.5543046,364
1686111116.566303,364
1686111116.5829182,364
1686111116.5955098,363
1686111116.6079705,361
1686111116.6242547,361
1686111116.637116,362
1686111116.6521983,362
1686111116.6653047,363
1686111116.6773534,363
1686111116.6933203,364
1686111116.7056692,366
1686111116.718461,368
1686111116.7344675,370
1686111116.7463925,372
1686111116.7594779,372
1686111116.7754042,373
1686111116.788081,374
1686111116.800401,376
1686111116.8167448,376
1686111116.8287868,376
1686111116.845309,375
1686111116.8573563,376
1686111116.8694074,376
1686111116.886406,376
1686111116.8989418,375
1686111116.910861,374
1686111116.927683,373
1686111116.9397106,372
1686111116.9531038,373
1686111116.9675202,372
1686111116.9805617,371
1686111116.9971263,370
1686111117.008511,369
1686111117.0213194,369
1686111117.0379975,368
1686111117.0503087,368
1686111117.0622804,368
1686111117.0784514,367
1686111117.090404,366
1686111117.1031435,366
1686111117.1200953,366
1686111117.132206,365
1686111117.1441014,365
1686111117.1607087,363
1686111117.1732638,362
1686111117.1891527,361
1686111117.201198,360
1686111117.2142286,360
1686111117.2304015,359
1686111117.2423341,358
1686111117.2551389,357
1686111117.27137,357
1686111117.2839248,357
1686111117.2959208,356
1686111117.3129697,355
1686111117.3240063,354
1686111117.3405538,353
1686111117.3533537,352
1686111117.3656433,352
1686111117.3812478,352
1686111117.394254,351
1686111117.406961,350
1686111117.422564,349
1686111117.4345646,350
1686111117.4474819,350
1686111117.4634285,349
1686111117.4760764,349
1686111117.4922554,349
1686111117.5048797,349
1686111117.5175323,349
1686111117.5329845,349
1686111117.5453742,349
1686111117.5582273,348
1686111117.5742245,348
1686111117.586847,348
1686111117.5991843,348
1686111117.6151235,348
1686111117.6271484,347
1686111117.6402805,347
1686111117.6563845,347
1686111117.6684313,348
1686111117.685054,348
1686111117.6973364,348
1686111117.7092345,348
1686111117.725244,348
1686111117.7382658,349
1686111117.750531,349
1686111117.767524,350
1686111117.7792473,350
1686111117.7914424,350
1686111117.808035,350
1686111117.8203466,350
1686111117.8365953,351
1686111117.848184,351
1686111117.8611686,351
1686111117.8782828,351
1686111117.8893414,351
1686111117.9022496,351
1686111117.918539,352
1686111117.930189,352
1686111117.9431903,352
1686111117.9594212,352
1686111117.9724557,352
1686111117.98393,352
1686111117.9999504,353
1686111118.0126743,353
1686111118.0290933,352
1686111118.0412192,352
1686111118.0530221,352
1686111118.070349,352
1686111118.0822942,353
1686111118.0949125,352
1686111118.1107407,352
1686111118.1235805,352
1686111118.135595,351
1686111118.1519263,352
1686111118.164297,352
1686111118.1802084,352
1686111118.1932147,352
1686111118.205349,351
1686111118.2214077,352
1686111118.2338958,353
1686111118.2462485,353
1686111118.26253,352
1686111118.2741108,352
1686111118.2871063,352
1686111118.3031597,352
1686111118.3160937,353
1686111118.3282053,353
1686111118.3444028,353
1686111118.3564017,353
1686111118.3725147,353
1686111118.3851411,354
1686111118.3971243,354
1686111118.4138484,354
1686111118.4263828,354
1686111118.4383075,354
1686111118.4542441,354
1686111118.467273,355
1686111118.4799373,355
1686111118.4962718,355
1686111118.50805,355
1686111118.5243452,355
1686111118.5366812,356
1686111118.54903,356
1686111118.5656621,357
1686111118.5781755,357
1686111118.589663,356
1686111118.60623,356
1686111118.6184628,357
1686111118.6315372,358
1686111118.6478996,358
1686111118.659893,358
1686111118.6763847,357
1686111118.6884239,358
1686111118.7005854,358
1686111118.7170568,358
1686111118.729436,359
1686111118.7412493,358
1686111118.7574947,358
1686111118.7709157,359
1686111118.78227,359
1686111118.7993307,360
1686111118.811386,360
1686111118.8231382,360
1686111118.8395765,360
1686111118.8522944,360
1686111118.8690107,361
1686111118.8811636,362
1686111118.8933563,362
1686111118.9096062,361
1686111118.9216404,361
1686111118.934129,362
1686111118.9501784,363
1686111118.9624534,363
1686111118.9754202,362
1686111118.9915717,362
1686111119.0041437,362
1686111119.0202527,362
1686111119.032823,363
1686111119.0448623,363
1686111119.0613148,362
1686111119.0734868,362
1686111119.0857747,363
1686111119.1018631,363
1686111119.1140316,363
1686111119.127118,363
1686111119.1432662,363
1686111119.1555228,362
1686111119.1678455,362
1686111119.1842344,363
1686111119.1964138,363
1686111119.2126024,363
1686111119.2250297,363
1686111119.2374625,362
1686111119.2537246,363
1686111119.2656136,364
1686111119.2782922,364
1686111119.2947118,363
1686111119.3068898,364
1686111119.3187938,363
1686111119.3358984,364
1686111119.347863,364
1686111119.3635612,364
1686111119.37684,364
1686111119.389192,363
1686111119.4051259,364
1686111119.4172947,365
1686111119.4301147,365
1686111119.44574,365
1686111119.457761,365
1686111119.4710138,365
1686111119.4873114,365
1686111119.4994564,366
1686111119.5119903,366
1686111119.527746,365
1686111119.5404265,365
1686111119.5570245,366
1686111119.5693922,366
1686111119.5812664,366
1686111119.5979712,367
1686111119.61067,366
1686111119.6222835,366
1686111119.638725,366
1686111119.6508265,367
1686111119.664019,366
1686111119.6791234,366
1686111119.6912768,366
1686111119.7083352,366
1686111119.7207627,366
1686111119.7327535,366
1686111119.749346,367
1686111119.7620091,367
1686111119.7743168,366
1686111119.7904007,366
1686111119.8027873,367
1686111119.8149154,367
1686111119.83147,368
1686111119.8436038,367
1686111119.8599389,368
1686111119.872494,368
1686111119.8847122,369
1686111119.900516,371
1686111119.9132013,373
1686111119.9252753,376
1686111119.941567,378
1686111119.9535735,374
1686111119.9664052,375
1686111119.9825256,375
1686111119.9945366,374
1686111120.0076437,374
1686111120.0236623,374
1686111120.035713,374
1686111120.0517066,374
1686111120.0647204,372
1686111120.077301,373
1686111120.093418,372
1686111120.1050649,373
1686111120.1181262,373
1686111120.1343474,373
1686111120.1471722,373
1686111120.1583035,371
1686111120.175228,372
1686111120.1879058,372
1686111120.2032099,373
1686111120.216162,374
1686111120.2285678,374
1686111120.2444313,371
1686111120.2569966,372
1686111120.2692719,371
1686111120.28642,372
1686111120.2978327,372
1686111120.3105245,372
1686111120.3268783,371
1686111120.3389227,371
1686111120.3553023,371
1686111120.3679996,372
1686111120.3801193,372
1686111120.3962543,372
1686111120.4083183,372
1686111120.4207535,370
1686111120.4372966,370
1686111120.4493756,370
1686111120.46169,369
1686111120.479046,368
1686111120.4908834,368
1686111120.5030432,367
1686111120.5192602,367
1686111120.5312645,367
1686111120.5483186,367
1686111120.560287,367
1686111120.572776,366
1686111120.588502,366
1686111120.6015553,367
1686111120.6136947,367
1686111120.629612,366
1686111120.642249,366
1686111120.6544437,366
1686111120.6709154,367
1686111120.6828802,368
1686111120.6995986,368
1686111120.7113314,368
1686111120.7241638,369
1686111120.7402718,368
1686111120.7528868,369
1686111120.764575,370
1686111120.7812595,371
1686111120.793324,371
1686111120.805776,371
1686111120.8217256,370
1686111120.8350446,370
1686111120.847324,369
1686111120.8631155,370
1686111120.8759341,370
1686111120.8921328,370
1686111120.904237,372
1686111120.9164813,373
1686111120.9331787,373
1686111120.9450116,374
1686111120.9576762,375
1686111120.9740279,369
1686111120.9859183,368
1686111120.998461,368
1686111121.014891,368
1686111121.0273497,366
1686111121.0431492,365
1686111121.0561645,365
1686111121.0681512,365
1686111121.0846229,365
1686111121.096757,364
1686111121.1089406,363
1686111121.1256256,363
1686111121.1376355,363
1686111121.1499653,363
1686111121.166801,362
1686111121.178708,362
1686111121.1906254,362
1686111121.2076936,361
1686111121.219715,361
1686111121.2356899,361
1686111121.2486901,361
1686111121.2606285,360
1686111121.2766252,359
1686111121.2896357,359
1686111121.3017995,359
1686111121.3179462,360
1686111121.3298898,360
1686111121.342699,359
1686111121.3586934,359
1686111121.370638,359
1686111121.3876295,359
1686111121.3999,360
1686111121.4116275,359
1686111121.428624,359
1686111121.4409971,358
1686111121.4526906,359
1686111121.4696262,359
1686111121.482673,359
1686111121.493907,359
1686111121.5106993,358
1686111121.522687,358
1686111121.5386808,358
1686111121.55143,359
1686111121.5633693,359
1686111121.580356,358
1686111121.5923533,358
1686111121.60442,357
1686111121.6209745,358
1686111121.6331525,358
1686111121.6453376,358
1686111121.6619036,358
1686111121.674649,357
1686111121.6866539,357
1686111121.7025778,358
1686111121.7155943,358
1686111121.7317798,358
1686111121.7436962,358
1686111121.7566946,358
1686111121.7727695,358
1686111121.7847004,358
1686111121.797015,358
1686111121.8136976,358
1686111121.8261895,358
1686111121.8377802,358
1686111121.8547766,358
1686111121.8667018,358
1686111121.8827608,359
1686111121.895759,359
1686111121.9077573,358
1686111121.9237037,358
1686111121.9366953,358
1686111121.9487724,358
1686111121.9650252,358
1686111121.9779513,358
1686111121.9899974,357
1686111122.0057144,358
1686111122.0180266,358
1686111122.0307133,358
1686111122.046694,357
1686111122.0597637,357
1686111122.0756967,357
1686111122.087772,357
1686111122.0996957,357
1686111122.1166975,358
1686111122.1287048,358
1686111122.141417,357
1686111122.1574886,357
1686111122.169384,358
1686111122.1824164,358
1686111122.1986887,358
1686111122.2103572,359
1686111122.226838,358
1686111122.2396417,358
1686111122.2515752,359
1686111122.2675576,358
1686111122.2805593,358
1686111122.2925751,357
1686111122.308606,356
1686111122.3217216,357
1686111122.3335297,358
1686111122.3501554,359
1686111122.3621638,361
1686111122.3784058,363
1686111122.3910792,365
1686111122.403098,368
1686111122.4194067,371
1686111122.4320788,375
1686111122.4442515,378
1686111122.460515,381
1686111122.4732594,385
1686111122.4853075,388
1686111122.5017471,391
1686111122.514253,393
1686111122.5262563,393
1686111122.5425959,394
1686111122.5542347,394
1686111122.5712497,393
1686111122.5831785,391
1686111122.5954995,386
1686111122.6124291,380
1686111122.6241424,373
1686111122.6362107,365
1686111122.653315,357
1686111122.6654453,349
1686111122.6771517,342
1686111122.6942296,335
1686111122.7065842,329
1686111122.7221494,325
1686111122.7352161,322
1686111122.7472224,320
1686111122.7642148,318
1686111122.7761455,317
1686111122.7884781,317
1686111122.8042142,317
1686111122.817142,318
1686111122.8297105,319
1686111122.8457768,319
1686111122.8577316,319
1686111122.8707128,320
1686111122.8867896,321
1686111122.8987143,324
1686111122.914714,326
1686111122.9279313,329
1686111122.9396021,332
1686111122.9565868,335
1686111122.9686596,338
1686111122.9808936,339
1686111122.997645,341
1686111123.009668,343
1686111123.0218112,344
1686111123.037544,345
1686111123.050624,347
1686111123.0665567,348
1686111123.0789294,348
1686111123.0916266,348
1686111123.107829,349
1686111123.1201704,351
1686111123.1325166,353
1686111123.1487007,353
1686111123.160754,354
1686111123.1730044,353
1686111123.189511,353
1686111123.2024179,352
1686111123.2143707,353
1686111123.2307706,353
1686111123.242466,353
1686111123.2594965,356
1686111123.2717857,358
1686111123.2836623,362
1686111123.3004007,366
1686111123.3125803,372
1686111123.324757,379
1686111123.3414905,387
1686111123.3534172,398
1686111123.3657525,409
1686111123.3824933,420
1686111123.394614,429
1686111123.41041,438
1686111123.4231422,444
1686111123.435823,450
1686111123.4518387,455
1686111123.4638417,459
1686111123.4761395,461
1686111123.4928977,460
1686111123.5049028,461
1686111123.5172048,459
1686111123.5339792,457
1686111123.5461693,454
1686111123.5621903,449
1686111123.575096,444
1686111123.5869005,440
1686111123.6038878,434
1686111123.6158242,428
1686111123.627992,422
1686111123.644316,417
1686111123.657069,410
1686111123.669089,407
1686111123.685008,402
1686111123.6973386,399
1686111123.7100036,394
1686111123.726306,390
1686111123.738322,388
1686111123.7549872,383
1686111123.7669961,381
1686111123.779337,379
1686111123.7960663,377
1686111123.8082688,374
1686111123.8200583,374
1686111123.8369832,375
1686111123.8492057,376
1686111123.8610003,376
1686111123.8780687,375
1686111123.890221,375
1686111123.90605,374
1686111123.918991,373
1686111123.9310646,370
1686111123.947047,368
1686111123.960064,365
1686111123.9722645,361
1686111123.9883332,357
1686111124.0007424,354
1686111124.0129976,349
1686111124.0293038,345
1686111124.0419357,340
1686111124.053708,335
1686111124.0699186,330
1686111124.0827172,324
1686111124.098641,319
1686111124.11109,313
1686111124.123,307
1686111124.1401622,303
1686111124.1525238,299
1686111124.1645515,298
1686111124.180775,296
1686111124.19352,295
1686111124.2054596,294
1686111124.2215354,294
1686111124.2344773,295
1686111124.2505991,296
1686111124.2624753,297
1686111124.2744553,297
1686111124.2915359,298
1686111124.3035252,300
1686111124.315787,301
1686111124.3324597,302
1686111124.3444567,303
1686111124.3568418,304
1686111124.373651,308
1686111124.3857522,312
1686111124.4018288,316
1686111124.414528,321
1686111124.4261413,326
1686111124.4431453,332
1686111124.4551444,339
1686111124.4681551,348
1686111124.484072,356
1686111124.496384,362
1686111124.5083385,370
1686111124.5250843,375
1686111124.5367305,380
1686111124.549737,385
1686111124.5657294,388
1686111124.5784056,391
1686111124.5946436,393
1686111124.6063366,395
1686111124.6193268,397
1686111124.6354637,398
1686111124.647637,399
1686111124.6601076,400
1686111124.6768477,401
1686111124.68886,405
1686111124.7014308,405
1686111124.7167792,407
1686111124.7299626,409
1686111124.7459204,411
1686111124.7579257,411
1686111124.770866,413
1686111124.7868652,415
1686111124.7992475,418
1686111124.811866,417
1686111124.8285952,418
1686111124.8398635,417
1686111124.8528674,417
1686111124.869478,418
1686111124.8809261,417
1686111124.893883,415
1686111124.9100485,413
1686111124.923165,410
1686111124.9385843,407
1686111124.9508874,404
1686111124.9628818,398
1686111124.9795682,391
1686111124.9916744,383
1686111125.003643,374
1686111125.0206459,367
1686111125.032705,362
1686111125.045609,356
1686111125.061194,350
1686111125.0741901,343
1686111125.0902698,336
1686111125.102524,327
1686111125.1142516,318
1686111125.1315703,308
1686111125.143774,298
1686111125.1556723,291
1686111125.1725056,286
1686111125.184576,282
1686111125.1967752,279
1686111125.2125835,277
1686111125.2254949,276
1686111125.2418199,276
1686111125.254568,276
1686111125.2664967,277
1686111125.2825537,279
1686111125.2948585,282
1686111125.307495,286
1686111125.3235502,290
1686111125.3360481,296
1686111125.3480399,303
1686111125.3649716,310
1686111125.377244,315
1686111125.3892345,320
1686111125.4049761,326
1686111125.4180174,330
1686111125.434253,334
1686111125.4463143,338
1686111125.4589367,340
1686111125.4752555,343
1686111125.487956,346
1686111125.5000134,345
1686111125.5162468,347
1686111125.528485,347
1686111125.5403435,348
1686111125.5574183,348
1686111125.569345,349
1686111125.5854023,350
1686111125.598409,351
1686111125.6103616,351
1686111125.626554,351
1686111125.6385508,351
1686111125.651607,352
1686111125.6675553,352
1686111125.679856,353
1686111125.6925943,352
1686111125.7085283,352
1686111125.7208643,352
1686111125.733542,353
1686111125.7495883,353
1686111125.7618814,353
1686111125.7775354,352
1686111125.7905886,352
1686111125.802587,352
1686111125.8195288,352
1686111125.8316135,353
1686111125.8435388,352
1686111125.8604214,352
1686111125.8727522,352
1686111125.885139,353
1686111125.9012492,355
1686111125.9130726,355
1686111125.9299626,355
1686111125.9421914,355
1686111125.9545472,356
1686111125.9708738,357
1686111125.9838748,358
1686111125.9952521,358
1686111126.0119498,358
1686111126.0240154,358
1686111126.0360343,358
1686111126.0529873,359
1686111126.0649188,359
1686111126.0769145,358
1686111126.093906,357
1686111126.1059067,357
1686111126.1219666,357
1686111126.1339676,358
1686111126.1469016,358
1686111126.162961,357
1686111126.1749163,357
1686111126.1879742,358
1686111126.203907,359
1686111126.216972,360
1686111126.2289882,360
1686111126.2449145,360
1686111126.2569065,360
1686111126.2739828,360
1686111126.2859774,361
1686111126.297903,361
1686111126.3149054,361
1686111126.3279405,361
1686111126.338961,361
1686111126.3559813,362
1686111126.3689215,362
1686111126.379919,363
1686111126.3969684,363
1686111126.4092286,362
1686111126.4249153,362
1686111126.4377415,363
1686111126.4498918,363
1686111126.4666102,363
1686111126.4787526,363
1686111126.4909892,363
1686111126.5075152,362
1686111126.5197284,363
1686111126.5319667,363
1686111126.5479925,363
1686111126.5604968,363
1686111126.5730462,362
1686111126.5892763,363
1686111126.6018019,363
1686111126.6178005,364
1686111126.630413,364
1686111126.6430552,364
1686111126.659048,364
1686111126.6712086,364
1686111126.6834657,365
1686111126.6995614,364
1686111126.711631,364
1686111126.724622,363
1686111126.7404678,363
1686111126.7533803,363
1686111126.7686183,363
1686111126.7825885,363
1686111126.7942445,362
1686111126.8101604,362
1686111126.8224156,362
1686111126.835166,362
1686111126.851501,362
1686111126.8635676,361
1686111126.8765512,361
1686111126.8925066,361
1686111126.9044452,360
1686111126.9174101,361
1686111126.93335,361
1686111126.9457798,361
1686111126.9613538,361
1686111126.9743662,361
1686111126.986348,362
1686111127.002365,362
1686111127.0154054,363
1686111127.0274174,362
1686111127.0434165,362
1686111127.056347,363
1686111127.068355,364
1686111127.0843468,365
1686111127.0964184,365
1686111127.1133606,365
1686111127.1254132,366
1686111127.1383674,366
1686111127.153974,366
1686111127.16693,367
1686111127.1789153,367
1686111127.195548,366
1686111127.2077394,366
1686111127.2197344,366
1686111127.236271,367
1686111127.2492003,367
1686111127.265153,366
1686111127.2776039,366
1686111127.2900083,366
1686111127.3062446,366
1686111127.31799,366
1686111127.3307238,366
1686111127.3472037,366
1686111127.3595014,366
1686111127.3716948,367
1686111127.3882349,369
1686111127.3997533,370
1686111127.4128182,372
1686111127.4289029,372
1686111127.4410517,374
1686111127.4576168,378
1686111127.4696703,384
1686111127.481646,391
1686111127.4987588,398
1686111127.5109298,406
1686111127.5229678,414
1686111127.539874,424
1686111127.552002,434
1686111127.5643327,445
1686111127.5809097,455
1686111127.593201,461
1686111127.608611,463
1686111127.6216168,463
1686111127.6334884,460
1686111127.6501133,454
1686111127.662417,447
1686111127.675097,439
1686111127.691406,431
1686111127.7034624,424
1686111127.715476,417
1686111127.7317734,409
1686111127.744017,400
1686111127.7563717,392
1686111127.7730908,385
1686111127.7856803,380
1686111127.8013227,374
1686111127.8143291,369
1686111127.8263516,364
1686111127.842271,360
1686111127.8552535,356
1686111127.86774,354
1686111127.883344,351
1686111127.895369,349
1686111127.9075096,346
1686111127.9247696,345
1686111127.936973,345
1686111127.9529693,344
1686111127.9653075,343
1686111127.9773161,341
1686111127.9943185,341
1686111128.0069387,341
1686111128.0190368,342
1686111128.0350451,342
1686111128.0476384,343
1686111128.059873,342
1686111128.0760624,342
1686111128.0884502,343
1686111128.1000435,343
1686111128.116324,344
1686111128.12932,343
1686111128.146649,342
1686111128.1583586,342
1686111128.1700478,343
1686111128.186437,344
1686111128.1987536,345
1686111128.211473,347
1686111128.2279804,349
1686111128.2400515,350
1686111128.2523217,352
1686111128.2684047,354
1686111128.281305,355
1686111128.2973237,354
1686111128.3093085,354
1686111128.322154,355
1686111128.3382454,356
1686111128.351079,358
1686111128.36212,359
1686111128.3793101,359
1686111128.3918812,359
1686111128.4033625,360
1686111128.419878,360
1686111128.431792,361
1686111128.4482741,362
1686111128.4611742,363
1686111128.4732232,364
1686111128.4891584,366
1686111128.5021243,369
1686111128.5144622,370
1686111128.5302422,371
1686111128.5425606,371
1686111128.5550878,372
1686111128.571435,373
1686111128.5841157,373
1686111128.5963748,372
1686111128.6123588,372
1686111128.6250277,371
1686111128.6413944,371
1686111128.6539078,371
1686111128.6661832,372
1686111128.6828115,371
1686111128.694937,370
1686111128.7069912,369
1686111128.7231872,369
1686111128.7352898,369
1686111128.7478776,369
1686111128.76399,365
1686111128.7762153,364
1686111128.7931833,363
1686111128.8052678,361
1686111128.8174186,361
1686111128.833462,360
1686111128.8463204,359
1686111128.8585222,357
1686111128.874291,356
1686111128.8872123,356
1686111128.8994951,357
1686111128.9153833,356
1686111128.9283204,356
1686111128.940498,355
1686111128.9566555,355
1686111128.969288,355
1686111128.9848547,354
1686111128.9973514,353
1686111129.0098662,352
1686111129.02654,351
1686111129.038955,350
1686111129.0512347,349
1686111129.0671988,348
1686111129.0797303,347
1686111129.0917344,346
1686111129.1077318,347
1686111129.1208658,348
1686111129.137006,349
1686111129.1495004,350
1686111129.161657,351
1686111129.1777146,352
1686111129.190328,353
1686111129.2022216,354
1686111129.21816,355
1686111129.23103,356
1686111129.243246,355
1686111129.2602477,356
1686111129.2722034,356
1686111129.2882469,357
1686111129.3002918,357
1686111129.3132167,357
1686111129.3296354,357
1686111129.3414006,356
1686111129.3539534,357
1686111129.370355,357
1686111129.3824065,357
1686111129.3952403,356
1686111129.4116857,356
1686111129.4238641,356
1686111129.4353518,357
1686111129.4519029,358
1686111129.4643393,358
1686111129.480924,358
1686111129.4931357,357
1686111129.505203,358
1686111129.521875,358
1686111129.5342667,358
1686111129.5465739,358
1686111129.5622432,357
1686111129.5746965,357
1686111129.5878167,357
1686111129.6039393,358
1686111129.616315,358
1686111129.6329002,358
1686111129.6451397,357
1686111129.6574738,357
1686111129.6734746,357
1686111129.6861212,357
1686111129.6983213,357
1686111129.7144668,357
1686111129.7261386,356
1686111129.7391748,356
1686111129.755154,356
1686111129.7677975,357
1686111129.7798045,357
1686111129.7962809,357
1686111129.8083375,357
1686111129.8246822,357
1686111129.8380208,357
1686111129.84983,358
1686111129.8662095,358
1686111129.878418,358
1686111129.8908331,358
1686111129.906982,358
1686111129.9190595,359
1686111129.9319339,359
1686111129.9483373,358
1686111129.9603508,359
1686111129.9769588,359
1686111129.9888062,360
1686111130.001327,360
1686111130.0179179,360
1686111130.0294278,361
1686111130.0420868,360
1686111130.0580451,361
1686111130.071107,364
1686111130.0832047,365
1686111130.099375,370
1686111130.1119816,367
1686111130.124308,367
1686111130.1403615,365
1686111130.1526775,366
1686111130.169225,368
1686111130.181502,369
1686111130.1935456,369
1686111130.2103148,367
1686111130.2224586,365
1686111130.234325,366
1686111130.250976,366
1686111130.2630436,366
1686111130.275254,367
1686111130.291291,368
1686111130.3043518,369
1686111130.3205292,374
1686111130.33296,364
1686111130.3452678,364
1686111130.3616955,362
1686111130.3737395,361
1686111130.3862114,361
1686111130.402928,361
1686111130.4144928,360
1686111130.4274335,360
1686111130.4439082,360
1686111130.4555614,360
1686111130.46789,360
1686111130.483996,360
1686111130.4959972,360
1686111130.5132155,359
1686111130.5249968,358
1686111130.537009,358
1686111130.5542545,358
1686111130.566111,358
1686111130.5780694,358
1686111130.5949044,359
1686111130.607099,360
1686111130.6196644,362
1686111130.6355925,365
1686111130.6482615,366
1686111130.6650555,368
1686111130.677309,370
1686111130.6893797,372
1686111130.7052674,374
1686111130.7173007,374
1686111130.7303395,375
1686111130.7463405,374
1686111130.759295,374
1686111130.771167,374
1686111130.7871168,373
1686111130.7994206,372
1686111130.8153198,370
1686111130.8282511,369
1686111130.8405674,367
1686111130.8579648,365
1686111130.8695288,364
1686111130.8817296,363
1686111130.8981764,361
1686111130.9106343,360
1686111130.9225304,359
1686111130.9392962,358
1686111130.9513583,359
1686111130.9634776,358
1686111130.980673,358
1686111130.9917357,357
1686111131.0082283,356
1686111131.0210648,356
1686111131.0332859,356
1686111131.0496857,356
1686111131.0619822,357
1686111131.074044,357
1686111131.0902984,357
1686111131.1030793,358
1686111131.1151278,358
1686111131.1320016,358
1686111131.1433582,357
1686111131.1602244,357
1686111131.1728733,358
1686111131.1848357,358
1686111131.2012374,358
1686111131.2132754,358
1686111131.2259917,358
1686111131.2423003,358
1686111131.254472,359
1686111131.2664523,359
1686111131.283435,359
1686111131.296357,358
1686111131.3074393,357
1686111131.3239589,357
1686111131.3364012,356
1686111131.352225,356
1686111131.3652844,356
1686111131.3772688,354
1686111131.3941414,354
1686111131.4053612,353
1686111131.4183452,353
1686111131.4342282,353
1686111131.4472773,352
1686111131.459431,352
1686111131.476061,351
1686111131.4882717,352
1686111131.5044255,352
1686111131.516331,353
1686111131.5292883,353
1686111131.5449753,352
1686111131.5571501,353
1686111131.5702026,354
1686111131.586344,355
1686111131.5988564,355
1686111131.6102965,356
1686111131.626801,355
1686111131.6399715,356
1686111131.65511,357
1686111131.6682765,357
1686111131.6806273,357
1686111131.6969612,356
1686111131.7091553,356
1686111131.7214313,356
1686111131.7376518,356
1686111131.7504177,356
1686111131.7625566,355
1686111131.7790596,354
1686111131.7913039,354
1686111131.8035326,353
1686111131.8194714,353
1686111131.8319163,352
1686111131.8482926,350
1686111131.860811,349
1686111131.8732665,349
1686111131.8895044,349
1686111131.9017413,349
1686111131.9133422,349
1686111131.9301825,348
1686111131.9425008,349
1686111131.9542758,349
1686111131.9708283,350
1686111131.9835129,350
1686111131.9993315,350
1686111132.0123343,349
1686111132.0246406,349
1686111132.0407493,350
1686111132.0532227,350
1686111132.065274,351
1686111132.0821571,351
1686111132.0943096,351
1686111132.105956,351
1686111132.1229763,351
1686111132.1351886,352
1686111132.1475937,352
1686111132.1635156,352
1686111132.1758256,352
1686111132.192023,352
1686111132.205014,353
1686111132.2170541,353
1686111132.2335114,352
1686111132.2454875,353
1686111132.2582512,352
1686111132.2747252,353
1686111132.286702,354
1686111132.2990017,354
1686111132.3156388,354
1686111132.3274283,354
1686111132.3440104,354
1686111132.3560047,354
1686111132.3688483,354
1686111132.3845346,354
1686111132.3966541,354
1686111132.4097152,353
1686111132.4262528,353
1686111132.437789,353
1686111132.45002,353
1686111132.466354,352
1686111132.4788525,351
1686111132.4908378,351
1686111132.5072072,351
1686111132.5202572,351
1686111132.536565,351
1686111132.5486863,350
1686111132.5613022,350
1686111132.577237,349
1686111132.5901315,350
1686111132.6022098,350
1686111132.6184165,350
1686111132.630443,350
1686111132.6427968,349
1686111132.6591964,349
1686111132.6709952,349
1686111132.687922,350
1686111132.7003312,350
1686111132.7123876,350
1686111132.7289186,350
1686111132.7409692,350
1686111132.7529917,351
1686111132.7699146,351
1686111132.7820022,351
1686111132.794058,351
1686111132.811005,351
1686111132.8229992,352
1686111132.838997,352
1686111132.8520005,353
1686111132.8642044,353
1686111132.880037,353
1686111132.8929973,354
1686111132.9049962,354
1686111132.9216328,355
1686111132.933985,355
1686111132.9459362,355
1686111132.962213,354
1686111132.974979,354
1686111132.987941,355
1686111133.0039203,356
1686111133.015997,356
1686111133.0319407,356
1686111133.0439873,355
1686111133.0569925,356
1686111133.073067,357
1686111133.0849903,358
1686111133.0979912,357
1686111133.1139786,357
1686111133.126274,356
1686111133.1389391,357
1686111133.1551826,357
1686111133.1672058,357
1686111133.1831226,357
1686111133.1961987,357
1686111133.208401,356
1686111133.2244449,357
1686111133.2361867,357
1686111133.2491477,357
1686111133.2657557,357
1686111133.2781222,357
1686111133.2901998,357
1686111133.3064795,357
1686111133.3181372,358
1686111133.3311386,358
1686111133.3472047,358
1686111133.3594441,357
1686111133.3761926,358
1686111133.3884718,358
1686111133.4004736,359
1686111133.4172213,359
1686111133.429164,358
1686111133.4411974,358
1686111133.4584682,358
1686111133.4703393,359
1686111133.4821606,359
1686111133.4991565,359
1686111133.511154,358
1686111133.527458,358
1686111133.540203,359
1686111133.5519004,359
1686111133.5682187,358
1686111133.5809538,358
1686111133.5931985,357
1686111133.6098824,357
1686111133.6209476,357
1686111133.6342897,357
1686111133.6508925,356
1686111133.6623013,356
1686111133.6782537,356
1686111133.6915226,356
1686111133.7033243,356
1686111133.720315,355
1686111133.7322528,354
1686111133.7442312,353
1686111133.761426,351
1686111133.7734375,350
1686111133.785354,350
1686111133.8022244,350
1686111133.8143685,350
1686111133.8263826,350
1686111133.843157,352
1686111133.8553512,354
1686111133.8713694,357
1686111133.8841133,360
1686111133.8961554,365
1686111133.9123592,370
1686111133.9251163,375
1686111133.9370396,381
1686111133.9537628,386
1686111133.9657161,390
1686111133.9781432,394
1686111133.9946766,397
1686111134.0070345,401
1686111134.023167,405
1686111134.035133,407
1686111134.048238,408
1686111134.0644622,409
1686111134.0758052,409
1686111134.0888777,409
1686111134.1045809,409
1686111134.117562,406
1686111134.1299338,403
1686111134.145893,399
1686111134.1585782,393
1686111134.1705627,386
1686111134.1870458,378
1686111134.1992197,370
1686111134.2152145,360
1686111134.2281992,351
1686111134.2401884,342
1686111134.256337,335
1686111134.2692945,329
1686111134.2812986,324
1686111134.297569,320
1686111134.3095498,316
1686111134.32255,314
1686111134.3388422,313
1686111134.350837,313
1686111134.3674984,313
1686111134.3796046,314
1686111134.3918383,315
1686111134.408706,317
1686111134.4208403,319
1686111134.4328258,321
1686111134.4489672,322
1686111134.46105,324
1686111134.4740453,327
1686111134.4900296,331
1686111134.5029688,335
1686111134.5150914,337
1686111134.5310516,339
1686111134.5430264,340
1686111134.560038,342
1686111134.5719807,344
1686111134.583961,346
1686111134.6010325,347
1686111134.6130474,347
1686111134.6249695,348
1686111134.641984,348
1686111134.654323,349
1686111134.666414,349
1686111134.6823351,349
1686111134.6952572,349
1686111134.7113605,348
1686111134.723574,349
1686111134.7352588,348
1686111134.752341,347
1686111134.764277,347
1686111134.7765167,348
1686111134.793255,350
1686111134.8053105,355
1686111134.8182533,361
1686111134.8343306,370
1686111134.8463926,379
1686111134.8625019,389
1686111134.8754933,399
1686111134.8878143,409
1686111134.903743,416
1686111134.9155574,423
1686111134.9284825,427
1686111134.944792,431
1686111134.9564254,433
1686111134.9695058,434
1686111134.9864357,434
1686111134.998405,434
1686111135.0104506,430
1686111135.0264523,428
1686111135.0387425,426
1686111135.055326,423
1686111135.0672412,418
1686111135.0802994,413
1686111135.0962386,408
1686111135.108311,403
1686111135.1213083,398
1686111135.137235,394
1686111135.148857,390
1686111135.1624374,385
1686111135.1784565,380
1686111135.1906765,377
1686111135.20675,374
1686111135.2192724,371
1686111135.2316673,369
1686111135.248227,368
1686111135.2602882,369
1686111135.272529,371
1686111135.2892084,373
1686111135.3012247,375
1686111135.3132231,377
1686111135.3297148,382
1686111135.3425994,387
1686111135.3546655,391
1686111135.3708723,394
1686111135.3829074,396
1686111135.399659,394
1686111135.4117684,392
1686111135.4236019,389
1686111135.4406755,385
1686111135.4527376,380
1686111135.464906,375
1686111135.4816015,368
1686111135.4936547,361
1686111135.505958,353
1686111135.5225978,344
1686111135.5349972,334
1686111135.5508182,325
1686111135.563515,315
1686111135.575556,307
1686111135.5917864,301
1686111135.604565,296
1686111135.6165102,291
1686111135.632825,287
1686111135.6454694,284
1686111135.657286,281
1686111135.674275,279
1686111135.686217,279
1686111135.7022913,279
1686111135.7142582,280
1686111135.727288,281
1686111135.7436292,284
1686111135.755641,287
1686111135.7675095,291
1686111135.7845614,293
1686111135.7968051,295
1686111135.8084998,296
1686111135.8255026,298
1686111135.8374949,300
1686111135.8498192,301
1686111135.8658173,303
1686111135.878797,307
1686111135.8951528,311
1686111135.9072711,319
1686111135.9198198,325
1686111135.9358034,333
1686111135.9478064,342
1686111135.960484,349
1686111135.9772441,358
1686111135.989386,365
1686111136.0011442,371
1686111136.0181606,374
1686111136.0306354,376
1686111136.045569,378
1686111136.0590308,381
1686111136.0707126,382
1686111136.0871384,383
1686111136.1001318,383
1686111136.1121979,382
1686111136.1281319,383
1686111136.140133,384
1686111136.1534326,388
1686111136.1691396,392
1686111136.1821604,393
1686111136.1942115,396
1686111136.2105522,400
1686111136.2223668,403
1686111136.2392719,406
1686111136.2511818,407
1686111136.2638361,409
1686111136.2798822,412
1686111136.2921705,414
1686111136.3048851,418
1686111136.320808,420
1686111136.3338108,421
1686111136.345816,421
1686111136.3628118,419
1686111136.3738182,417
1686111136.3902974,410
1686111136.403126,400
1686111136.4147525,385
1686111136.4317482,368
1686111136.443744,354
1686111136.4559357,339
1686111136.4722426,325
1686111136.4849885,315
1686111136.4969308,306
1686111136.512918,299
1686111136.5259964,293
1686111136.542249,289
1686111136.554244,286
1686111136.5669158,283
1686111136.5831947,281
1686111136.5952442,280
1686111136.6079154,281
1686111136.6239243,282
1686111136.6362555,284
1686111136.648588,284
1686111136.6650453,285
1686111136.677109,287
1686111136.6901278,291
1686111136.7061112,294
1686111136.718382,298
1686111136.7340581,302
1686111136.7470028,307
1686111136.7590482,313
1686111136.7760549,319
1686111136.7880704,324
1686111136.8003056,327
1686111136.8159893,330
1686111136.8291962,331
1686111136.8413827,333
1686111136.8569498,334
1686111136.8699665,336
1686111136.8859494,336
1686111136.8981986,337
1686111136.9109445,338
1686111136.9272182,338
1686111136.9388862,340
1686111136.9519064,341
1686111136.9679668,342
1686111136.9798892,343
1686111136.9929693,343
1686111137.0090435,345
1686111137.0212224,347
1686111137.0339644,348
1686111137.0501986,349
1686111137.0629034,349
1686111137.0788877,349
1686111137.091034,350
1686111137.1032178,351
1686111137.1199503,352
1686111137.1318882,352
1686111137.1442163,352
1686111137.1608913,353
1686111137.1729903,354
1686111137.1849582,355
1686111137.201965,355
1686111137.213901,355
1686111137.2299106,355
1686111137.2429395,356
1686111137.2549114,357
1686111137.2709103,357
1686111137.2832308,358
1686111137.2960174,358
1686111137.3121715,358
1686111137.324186,359
1686111137.3369696,360
1686111137.3529506,361
1686111137.3652887,361
1686111137.3812966,361
1686111137.3943615,361
1686111137.4063609,363
1686111137.4222758,363
1686111137.4353595,364
1686111137.4472837,365
1686111137.4633095,364
1686111137.4763594,365
1686111137.488374,365
1686111137.5046358,366
1686111137.5173478,366
1686111137.5293097,366
1686111137.545351,366
1686111137.5583556,367
1686111137.57438,369
1686111137.5862887,370
1686111137.598596,370
1686111137.6153688,370
1686111137.6273472,370
1686111137.6393483,370
1686111137.656365,374
1686111137.668353,383
1686111137.6806598,374
1686111137.6973069,369
1686111137.709376,370
1686111137.7253163,370
1686111137.7383208,371
1686111137.7503173,370
1686111137.766492,370
1686111137.7785506,370
1686111137.7915666,371
1686111137.8074975,369
1686111137.8200188,371
1686111137.8320897,369
1686111137.8485208,367
1686111137.861244,365
1686111137.8736422,371
1686111137.8894904,371
1686111137.9022505,364
1686111137.9181743,370
1686111137.9310338,369
1686111137.943222,369
1686111137.9594035,381
1686111137.971187,380
1686111137.9841669,380
1686111138.000166,378
1686111138.0123646,377
1686111138.025194,376
1686111138.0414748,376
1686111138.0535169,375
1686111138.070267,375
1686111138.0823839,374
1686111138.094511,373
1686111138.1111798,372
1686111138.1235056,372
1686111138.1358397,372
1686111138.1513162,372
1686111138.1644256,371
1686111138.176411,370
1686111138.1923082,370
1686111138.205367,371
1686111138.2213523,371
1686111138.2337344,370
1686111138.246315,370
1686111138.26221,370
1686111138.2751667,370
1686111138.286364,371
1686111138.3035572,370
1686111138.3160007,369
1686111138.328337,369
1686111138.3457134,369
1686111138.3570163,370
1686111138.369062,372
1686111138.3853743,372
1686111138.3977575,373
1686111138.4132931,373
1686111138.426404,373
1686111138.43835,374
1686111138.4548283,375
1686111138.4668696,375
1686111138.4794567,376
1686111138.4954453,375
1686111138.508433,376
1686111138.520523,376
1686111138.5365074,377
1686111138.548497,377
1686111138.5653186,376
1686111138.5780177,376
1686111138.5900185,375
1686111138.6060648,376
1686111138.6180062,376
1686111138.6310134,375
1686111138.6470673,374
1686111138.6599493,374
1686111138.6719832,374
1686111138.6886313,374
1686111138.700336,374
1686111138.7126014,373
1686111138.7293134,373
1686111138.7411852,373
1686111138.7571812,374
1686111138.7699852,374
1686111138.7820375,375
1686111138.799078,375
1686111138.8111124,375
1686111138.8233626,375
1686111138.8401194,376
1686111138.8520753,377
1686111138.8641298,377
1686111138.8802335,378
1686111138.8933167,378
1686111138.9093153,380
1686111138.9222493,382
1686111138.9342997,383
1686111138.9506469,383
1686111138.9627454,383
1686111138.9753296,383
1686111138.991321,384
1686111139.0034924,386
1686111139.0160902,387
1686111139.0327458,387
1686111139.0447416,389
1686111139.0572903,391
1686111139.072956,395
1686111139.085466,399
1686111139.1021912,402
1686111139.1142256,405
1686111139.1263654,408
1686111139.1428683,412
1686111139.1554897,418
1686111139.1673436,422
1686111139.1835113,425
1686111139.1964328,428
1686111139.2082734,428
1686111139.2252073,427
1686111139.2374353,425
1686111139.2540576,421
1686111139.2662287,416
1686111139.2778986,409
1686111139.2946608,403
1686111139.3072925,397
1686111139.3195035,392
1686111139.335657,386
1686111139.3480325,381
1686111139.3601665,377
1686111139.3769639,373
1686111139.388596,371
1686111139.4012933,370
1686111139.417437,369
1686111139.4294298,368
1686111139.4461174,368
1686111139.4584098,369
1686111139.4704711,370
1686111139.4872937,370
1686111139.4993536,372
1686111139.511479,372
1686111139.5281022,374
1686111139.5404313,377
1686111139.5524976,380
1686111139.569226,382
1686111139.5810614,379
1686111139.5977597,379
1686111139.610113,379
1686111139.6224434,380
1686111139.6384668,381
1686111139.6504602,381
1686111139.663549,380
1686111139.679726,381
1686111139.6920447,381
1686111139.7039444,383
1686111139.7209206,384
1686111139.7332807,384
1686111139.7482991,383
1686111139.7617555,384
1686111139.7738478,386
1686111139.790214,387
1686111139.8023102,387
1686111139.8150988,386
1686111139.8304965,386
1686111139.843594,387
1686111139.856164,388
1686111139.8721166,388
1686111139.8841627,384
1686111139.8963492,384
1686111139.9125848,384
1686111139.9253204,383
1686111139.9421582,383
1686111139.9542556,384
1686111139.96629,384
1686111139.9824543,385
1686111139.994419,386
1686111140.0073009,386
1686111140.024078,388
1686111140.0360937,389
1686111140.048396,388
1686111140.064764,388
1686111140.076295,387
1686111140.0930595,387
1686111140.1052387,387
1686111140.1181557,387
1686111140.1343682,387
1686111140.1464605,386
1686111140.1587882,385
1686111140.1753912,386
1686111140.1879349,387
1686111140.2000086,386
1686111140.2163553,385
1686111140.2279093,385
1686111140.2402291,386
1686111140.257483,386
1686111140.2689438,387
1686111140.2862115,388
1686111140.298451,387
1686111140.3104556,387
1686111140.327193,375
1686111140.3387804,375
1686111140.352166,375
1686111140.3676338,375
1686111140.3796754,374
1686111140.3924649,373
1686111140.4087036,374
1686111140.4210777,375
1686111140.437504,377
1686111140.449392,378
1686111140.4613314,379
1686111140.4783385,380
1686111140.490405,383
1686111140.5026636,386
1686111140.518987,387
1686111140.531616,389
1686111140.5440462,389
1686111140.5597208,390
1686111140.5726693,391
1686111140.5886488,391
1686111140.6013956,390
1686111140.613789,388
1686111140.629449,385
1686111140.6421359,382
1686111140.6541417,378
1686111140.6711671,375
1686111140.6831644,372
1686111140.6953804,370
1686111140.7110958,368
1686111140.723813,366
1686111140.7359219,366
1686111140.7531667,366
1686111140.7652388,366
1686111140.7811375,366
1686111140.7943156,367
1686111140.8063452,368
1686111140.822418,368
1686111140.8344138,368
1686111140.8470778,368
1686111140.8633182,367
1686111140.8756468,367
1686111140.887681,368
1686111140.9043844,369
1686111140.9163687,369
1686111140.9321508,369
1686111140.9453988,369
1686111140.9573476,369
1686111140.9742818,370
1686111140.9863489,371
1686111140.9983609,371
1686111141.014759,371
1686111141.0273664,371
1686111141.040474,372
1686111141.0553577,372
1686111141.0690413,372
1686111141.0841367,371
1686111141.0969398,371
1686111141.1084468,370
1686111141.1258683,371
1686111141.1380756,371
1686111141.150262,371
1686111141.166218,370
1686111141.1785636,370
1686111141.1912823,370
1686111141.2074897,370
1686111141.2196033,371
1686111141.2312827,372
1686111141.2479827,371
1686111141.2606246,371
1686111141.276269,371
1686111141.2896242,373
1686111141.3016064,373
1686111141.3182423,373
1686111141.3302255,373
1686111141.342311,373
1686111141.3592808,374
1686111141.3715062,376
1686111141.3836215,376
1686111141.4005976,375
1686111141.412378,375
1686111141.428075,375
1686111141.4411473,376
1686111141.453161,376
1686111141.4694679,377
1686111141.4811666,377
1686111141.494246,383
1686111141.510669,388
1686111141.5223315,390
1686111141.535393,390
1686111141.5518558,390
1686111141.563064,390
1686111141.5754943,389
1686111141.5926642,389
1686111141.6048646,390
1686111141.6203165,388
1686111141.6330166,383
1686111141.645105,380
1686111141.6620238,379
1686111141.6738517,378
1686111141.6868992,380
1686111141.7033324,381
1686111141.7154,382
1686111141.7271576,382
1686111141.7438798,383
1686111141.7566042,383
1686111141.77204,383
1686111141.784618,384
1686111141.7970822,382
1686111141.8134906,382
1686111141.8262312,383
1686111141.8384664,384
1686111141.85445,384
1686111141.866516,385
1686111141.8791301,384
1686111141.8955917,384
1686111141.9070709,384
1686111141.9200308,384
1686111141.936783,384
1686111141.9484472,384
1686111141.9644475,383
1686111141.9775531,382
1686111141.9894285,383
1686111142.0062776,383
1686111142.0184088,383
1686111142.0307171,383
1686111142.0472193,383
1686111142.0588787,384
1686111142.071798,384
1686111142.0877194,384
1686111142.1004627,383
1686111142.116677,382
1686111142.1283484,382
1686111142.1413484,381
1686111142.158025,381
1686111142.1697533,381
1686111142.1820002,381
1686111142.198726,380
1686111142.2104926,380
1686111142.2233124,380
1686111142.2394664,380
1686111142.251519,380
1686111142.2677577,380
1686111142.2808502,379
1686111142.293199,379
1686111142.309383,379
1686111142.3216248,380
1686111142.3341992,380
1686111142.3497677,380
1686111142.3622825,379
1686111142.374772,380
1686111142.3912797,380
1686111142.4035988,381
1686111142.4153829,381
1686111142.431634,380
1686111142.4445171,380
1686111142.46046,379
1686111142.473239,380
1686111142.4854608,380
1686111142.5013516,380
1686111142.5136604,380
1686111142.5265214,380
1686111142.542614,380
1686111142.554551,381
1686111142.5665596,382
1686111142.5833395,382
1686111142.5954328,382
1686111142.6121135,381
1686111142.6249425,381
1686111142.6371827,382
1686111142.6531825,382
1686111142.6652622,381
1686111142.6774552,380
1686111142.6942518,380
1686111142.706252,381
1686111142.7189715,381
1686111142.7351656,381
1686111142.7475233,381
1686111142.7596595,380
1686111142.7756417,380
1686111142.7880147,381
1686111142.8045301,382
1686111142.8165874,382
1686111142.829638,380
1686111142.8456287,380
1686111142.8583505,381
1686111142.8704236,381
1686111142.8870277,381
1686111142.8992014,381
1686111142.9109337,380
1686111142.927808,381
1686111142.9399965,381
1686111142.9564557,382
1686111142.9686785,383
1686111142.980816,383
1686111142.9974616,382
1686111143.0097506,382
1686111143.0231836,383
1686111143.0387995,383
1686111143.0501206,383
1686111143.063187,382
1686111143.0791936,382
1686111143.0911543,382
1686111143.1033208,383
1686111143.1194904,383
1686111143.1331725,383
1686111143.1485803,382
1686111143.1607857,382
1686111143.173504,382
1686111143.1901796,383
1686111143.2022357,383
1686111143.2141356,382
1686111143.2304873,382
1686111143.2432837,382
1686111143.2554588,382
1686111143.2714381,383
1686111143.2833996,383
1686111143.300479,382
1686111143.3129723,382
1686111143.3251786,382
1686111143.3415856,382
1686111143.353898,382
1686111143.3661864,383
1686111143.3824463,382
1686111143.3943188,382
1686111143.4064658,382
1686111143.4234595,383
1686111143.4356916,383
1686111143.4522285,383
1686111143.4645267,382
1686111143.4762099,382
1686111143.4925387,382
1686111143.5050821,382
1686111143.5178452,383
1686111143.5333562,383
1686111143.5464184,382
1686111143.558471,382
1686111143.5744398,383
1686111143.5872588,383
1686111143.5994763,383
1686111143.615702,383
1686111143.6281445,383
1686111143.6438382,383
1686111143.6571038,384
1686111143.6685243,384
1686111143.6855187,384
1686111143.6985366,383
1686111143.709521,383
1686111143.7258654,384
1686111143.7382941,384
1686111143.7509816,384
1686111143.7673151,384
1686111143.779872,384
1686111143.7952774,384
1686111143.8077374,383
1686111143.819811,384
1686111143.8371475,384
1686111143.8492265,384
1686111143.8617833,383
1686111143.877951,383
1686111143.8904068,384
1686111143.9023907,384
1686111143.9185185,384
1686111143.9316251,383
1686111143.9431622,383
1686111143.9595597,383
1686111143.9722874,384
1686111143.9886537,384
1686111144.000655,384
1686111144.0132177,383
1686111144.0296812,383
1686111144.0414934,383
1686111144.0541594,383
1686111144.0705943,384
1686111144.0823348,383
1686111144.0951657,383
1686111144.111609,382
1686111144.123679,383
1686111144.1397579,383
1686111144.152476,383
1686111144.16504,382
1686111144.1812382,382
1686111144.193388,382
1686111144.2054887,382
1686111144.221929,383
1686111144.2341292,383
1686111144.2461147,382
1686111144.262959,382
1686111144.2751145,382
1686111144.287098,382
1686111144.3040946,382
1686111144.3161902,382
1686111144.332097,381
1686111144.3451188,381
1686111144.3571336,380
1686111144.3731594,380
1686111144.3861187,380
1686111144.3981082,380
1686111144.4141574,379
1686111144.4271069,379
1686111144.4391446,379
1686111144.4554038,380
1686111144.4674113,380
1686111144.4833806,380
1686111144.4964008,380
1686111144.508426,380
1686111144.52439,380
1686111144.537671,381
1686111144.550427,380
1686111144.5657277,380
1686111144.5784736,380
1686111144.5906935,380
