timestamps,emg_signal
1686190155.7201755,317
1686190155.7366004,316
1686190155.7490435,316
1686190155.7603836,315
1686190155.7772388,316
1686190155.788976,317
1686190155.8019767,317
1686190155.8186164,316
1686190155.830538,315
1686190155.8471975,315
1686190155.8591995,316
1686190155.871217,317
1686190155.8879242,317
1686190155.900354,316
1686190155.912829,315
1686190155.928257,315
1686190155.9412425,316
1686190155.9531827,317
1686190155.9692345,316
1686190155.9822323,315
1686190155.9985054,314
1686190156.0108676,315
1686190156.0233881,316
1686190156.0397153,317
1686190156.0517712,316
1686190156.0641832,314
1686190156.080627,314
1686190156.0924854,315
1686190156.1051424,316
1686190156.1217616,316
1686190156.133632,315
1686190156.1458614,314
1686190156.16259,314
1686190156.1738951,315
1686190156.1909165,316
1686190156.2036815,316
1686190156.2159722,315
1686190156.2322454,314
1686190156.243656,315
1686190156.2560403,317
1686190156.273099,318
1686190156.2846317,317
1686190156.2976763,315
1686190156.313949,315
1686190156.3262854,316
1686190156.3425949,317
1686190156.3550236,318
1686190156.3673139,316
1686190156.383739,315
1686190156.3957384,315
1686190156.4078066,316
1686190156.423939,317
1686190156.4369924,316
1686190156.4492235,315
1686190156.465215,314
1686190156.4776115,314
1686190156.494217,315
1686190156.5059385,316
1686190156.5179782,315
1686190156.5348923,314
1686190156.5468824,313
1686190156.5599341,313
1686190156.576163,314
1686190156.5886116,315
1686190156.6005857,313
1686190156.6170886,311
1686190156.6290808,311
1686190156.641675,311
1686190156.6577125,312
1686190156.6697764,312
1686190156.686992,311
1686190156.6990016,309
1686190156.7106886,309
1686190156.7282207,310
1686190156.7397795,310
1686190156.7521307,310
1686190156.768142,308
1686190156.781056,307
1686190156.7935452,307
1686190156.8092053,307
1686190156.8214614,308
1686190156.8377478,308
1686190156.850488,306
1686190156.8628323,305
1686190156.8787782,306
1686190156.8912644,307
1686190156.9040372,307
1686190156.920224,306
1686190156.9320915,305
1686190156.9441028,304
1686190156.9612172,305
1686190156.9732556,307
1686190156.9856348,307
1686190157.001985,306
1686190157.014025,305
1686190157.0310452,305
1686190157.0430963,306
1686190157.055292,307
1686190157.0720165,307
1686190157.083862,307
1686190157.0967925,306
1686190157.1127915,307
1686190157.124789,308
1686190157.13685,310
1686190157.1528075,309
1686190157.16588,308
1686190157.1821158,307
1686190157.1944356,308
1686190157.2067258,310
1686190157.2231953,310
1686190157.235448,310
1686190157.2479706,308
1686190157.2635283,308
1686190157.2765355,310
1686190157.2887347,311
1686190157.3048255,312
1686190157.3174088,311
1686190157.3334785,310
1686190157.34552,310
1686190157.3580494,312
1686190157.374933,313
1686190157.3869774,313
1686190157.3996851,312
1686190157.4152498,311
1686190157.4280438,312
1686190157.4398515,314
1686190157.4568524,315
1686190157.4690316,315
1686190157.4810522,313
1686190157.4975245,313
1686190157.5097523,314
1686190157.525855,315
1686190157.5385518,316
1686190157.5510614,315
1686190157.5672748,313
1686190157.579872,313
1686190157.591846,314
1686190157.607559,315
1686190157.620867,315
1686190157.6324205,314
1686190157.6490011,313
1686190157.6611648,314
1686190157.6775165,316
1686190157.690361,317
1686190157.702758,317
1686190157.7190132,316
1686190157.730752,315
1686190157.7430606,316
1686190157.7595778,318
1686190157.7722578,318
1686190157.7840803,318
1686190157.8002212,317
1686190157.8132334,317
1686190157.82522,317
1686190157.8419263,318
1686190157.854028,319
1686190157.8706784,318
1686190157.882592,316
1686190157.894313,316
1686190157.9114013,316
1686190157.9234152,317
1686190157.9350774,317
1686190157.9520955,316
1686190157.9646661,315
1686190157.977042,315
1686190157.993354,316
1686190158.0052469,316
1686190158.0218337,316
1686190158.0341384,314
1686190158.046128,313
1686190158.062646,313
1686190158.0746858,314
1686190158.087544,315
1686190158.103214,314
1686190158.11559,312
1686190158.1280966,312
1686190158.1447256,313
1686190158.1575327,314
1686190158.173053,315
1686190158.1860323,314
1686190158.198084,314
1686190158.2144585,314
1686190158.2270002,315
1686190158.2387905,317
1686190158.2548976,317
1686190158.2673328,317
1686190158.2800045,316
1686190158.2961795,317
1686190158.308796,318
1686190158.3210442,319
1686190158.3376272,320
1686190158.3496735,319
1686190158.3659794,318
1686190158.378015,319
1686190158.3908114,321
1686190158.407069,322
1686190158.4190016,321
1686190158.431551,320
1686190158.4478009,320
1686190158.459858,322
1686190158.4718103,323
1686190158.4881866,324
1686190158.5011861,323
1686190158.517174,322
1686190158.5298822,322
1686190158.542055,323
1686190158.55861,325
1686190158.5702043,325
1686190158.5826697,324
1686190158.5996952,323
1686190158.6120374,323
1686190158.62424,325
1686190158.639743,326
1686190158.6527388,325
1686190158.668806,324
1686190158.6813326,324
1686190158.6938636,325
1686190158.7100096,326
1686190158.7220533,327
1686190158.7346838,326
1686190158.750992,325
1686190158.763044,325
1686190158.775039,326
1686190158.7919476,327
1686190158.8048031,327
1686190158.816101,326
1686190158.832932,325
1686190158.8452544,325
1686190158.8613007,326
1686190158.8739243,328
1686190158.8861785,327
1686190158.9025903,326
1686190158.9147801,325
1686190158.9272854,325
1686190158.9428823,326
1686190158.956032,327
1686190158.9676387,327
1686190158.9837735,325
1686190158.9974647,325
1686190159.0131426,325
1686190159.025659,327
1686190159.0374215,327
1686190159.053554,326
1686190159.066544,325
1686190159.0785432,324
1686190159.0952,325
1686190159.1065753,325
1686190159.1195722,325
1686190159.1358032,322
1686190159.1478121,320
1686190159.161238,320
1686190159.1764712,321
1686190159.189139,322
1686190159.2054894,321
1686190159.217861,320
1686190159.229854,319
1686190159.2458136,319
1686190159.2588258,321
1686190159.2706087,322
1686190159.2871964,321
1686190159.2994578,320
1686190159.3120546,320
1686190159.328508,321
1686190159.340942,323
1686190159.35712,323
1686190159.3697817,323
1686190159.3815155,321
1686190159.3984213,321
1686190159.4107292,322
1686190159.4228787,324
1686190159.4388576,324
1686190159.4516976,323
1686190159.4640012,322
1686190159.4800203,323
1686190159.492678,324
1686190159.5040746,326
1686190159.5205958,326
1686190159.5336099,325
1686190159.5496023,324
1686190159.561469,325
1686190159.5738308,326
1686190159.5911486,326
1686190159.6031494,326
1686190159.6151524,324
1686190159.6312034,324
1686190159.643865,325
1686190159.656116,326
1686190159.6725674,327
1686190159.6845853,326
1686190159.701316,325
1686190159.7134094,325
1686190159.725205,326
1686190159.742226,327
1686190159.754271,327
1686190159.7663274,326
1686190159.7832718,325
1686190159.7954276,325
1686190159.8075728,326
1686190159.8240776,326
1686190159.8366473,326
1686190159.8530595,324
1686190159.8651404,324
1686190159.8774476,324
1686190159.8940344,325
1686190159.9057975,326
1686190159.9185617,325
1686190159.9349298,323
1686190159.946657,323
1686190159.9595912,323
1686190159.9758193,324
1686190159.9878242,324
1686190160.0006778,323
1686190160.0168703,321
1686190160.0288453,322
1686190160.0445235,322
1686190160.0575356,323
1686190160.0695422,323
1686190160.0855598,321
1686190160.0988207,320
1686190160.110579,321
1686190160.1265764,322
1686190160.139107,323
1686190160.150997,323
1686190160.1682222,321
1686190160.1802218,321
1686190160.1970704,321
1686190160.209197,322
1686190160.2208056,323
1686190160.237451,322
1686190160.2500238,321
1686190160.2620668,320
1686190160.2788582,321
1686190160.2913065,323
1686190160.3034194,322
1686190160.3200035,321
1686190160.3320277,320
1686190160.3443377,319
1686190160.3602984,321
1686190160.3729115,322
1686190160.3889894,322
1686190160.401508,321
1686190160.4140334,320
1686190160.429543,320
1686190160.4428802,321
1686190160.4551194,322
1686190160.4710102,321
1686190160.4834723,320
1686190160.4951954,319
1686190160.5121028,320
1686190160.5251627,321
1686190160.5407088,321
1686190160.5530806,321
1686190160.5655992,319
1686190160.5812826,319
1686190160.5941348,320
1686190160.6064143,321
1686190160.6229522,321
1686190160.6353812,320
1686190160.6474211,319
1686190160.6633575,319
1686190160.6760342,320
1686190160.688112,321
1686190160.7044847,321
1686190160.7170148,319
1686190160.733245,319
1686190160.7453573,319
1686190160.7578106,321
1686190160.7744946,322
1686190160.786625,321
1686190160.7988994,320
1686190160.8155165,319
1686190160.8274581,320
1686190160.8399405,321
1686190160.856272,321
1686190160.8683157,320
1686190160.8847857,319
1686190160.8967645,318
1686190160.908815,319
1686190160.9255397,320
1686190160.9379702,320
1686190160.950398,319
1686190160.9667356,317
1686190160.9790552,317
1686190160.9911711,318
1686190161.008176,319
1686190161.0201876,319
1686190161.0361826,317
1686190161.0481904,316
1686190161.0605917,317
1686190161.0771382,318
1686190161.0893319,319
1686190161.101351,318
1686190161.1177907,316
1686190161.1299415,316
1686190161.1426203,317
1686190161.1596131,318
1686190161.171189,319
1686190161.183111,318
1686190161.200816,316
1686190161.2126274,316
1686190161.2284238,318
1686190161.2404907,319
1686190161.2534282,318
1686190161.269466,317
1686190161.281484,316
1686190161.2944226,316
1686190161.3108194,317
1686190161.3228095,318
1686190161.3348782,318
1686190161.351811,316
1686190161.363811,316
1686190161.380534,316
1686190161.3925645,318
1686190161.40537,318
1686190161.4212415,317
1686190161.4339836,316
1686190161.445889,316
1686190161.4618995,316
1686190161.4748023,318
1686190161.4865928,318
1686190161.503312,317
1686190161.5153174,316
1686190161.5275505,316
1686190161.543704,317
1686190161.5569558,318
1686190161.5728035,318
1686190161.584778,317
1686190161.5977902,315
1686190161.6139674,315
1686190161.6257474,317
1686190161.6383448,318
1686190161.654192,317
1686190161.667227,316
1686190161.679759,315
1686190161.6957371,316
1686190161.7081094,317
1686190161.723954,318
1686190161.7363331,317
1686190161.748757,316
1686190161.7656145,316
1686190161.7772992,317
1686190161.7901485,318
1686190161.8069282,319
1686190161.818245,318
1686190161.831124,316
1686190161.847574,316
1686190161.8596056,318
1686190161.8760254,318
1686190161.8880656,318
1686190161.9009097,317
1686190161.91712,316
1686190161.9296823,316
1686190161.9411526,317
1686190161.9576788,317
1686190161.9707203,317
1686190161.9829278,315
1686190161.9991179,315
1686190162.0107145,316
1686190162.0238216,317
1686190162.0396578,318
1686190162.0528662,317
1686190162.0683506,316
1686190162.0803337,316
1686190162.092387,317
1686190162.109588,318
1686190162.1218724,319
1686190162.134039,317
1686190162.1498811,316
1686190162.1628473,316
1686190162.1749232,318
1686190162.1914043,319
1686190162.2039373,319
1686190162.2199862,317
1686190162.232186,316
1686190162.2450256,316
1686190162.2611957,318
1686190162.273199,318
1686190162.285203,317
1686190162.302212,316
1686190162.3142464,315
1686190162.326244,316
1686190162.343235,317
1686190162.3555684,318
1686190162.371664,316
1686190162.3835351,315
1686190162.3959374,315
1686190162.4129438,316
1686190162.4245842,317
1686190162.4371765,317
1686190162.4528906,316
1686190162.465597,315
1686190162.4782984,315
1686190162.4941585,317
1686190162.5070984,317
1686190162.5191002,317
1686190162.5357685,315
1686190162.5478241,314
1686190162.5638273,315
1686190162.57676,316
1686190162.5887563,317
1686190162.6047575,316
1686190162.617439,314
1686190162.6298018,313
1686190162.6461613,314
1686190162.6579697,315
1686190162.6700783,315
1686190162.687015,314
1686190162.6996937,313
1686190162.7153773,313
1686190162.7281075,314
1686190162.7406216,315
1686190162.7565734,315
1686190162.768884,313
1686190162.7809448,312
1686190162.797882,313
1686190162.809883,314
1686190162.8222444,314
1686190162.8383884,313
1686190162.8503897,312
1686190162.8630242,312
1686190162.879928,312
1686190162.8919756,314
1686190162.9079688,314
1686190162.9201188,314
1686190162.932919,313
1686190162.9493346,313
1686190162.9610672,314
1686190162.9740617,315
1686190162.9902337,316
1686190163.0022104,314
1686190163.0149946,314
1686190163.0308177,314
1686190163.0430331,315
1686190163.0599606,316
1686190163.0721238,316
1686190163.0838988,315
1686190163.101613,314
1686190163.113214,314
1686190163.125634,316
1686190163.1419444,317
1686190163.153701,316
1686190163.1665528,315
1686190163.1825974,315
1686190163.1949854,315
1686190163.210671,317
1686190163.2239082,317
1686190163.235648,317
1686190163.2522151,315
1686190163.2647302,315
1686190163.276732,316
1686190163.2935605,318
1686190163.3050985,318
1686190163.3181212,317
1686190163.3344853,316
1686190163.3465993,315
1686190163.3590243,317
1686190163.3748531,318
1686190163.3871348,318
1686190163.4034557,317
1686190163.4162207,316
1686190163.4280338,316
1686190163.4445207,318
1686190163.4570775,318
1686190163.469571,318
1686190163.4852722,316
1686190163.4978647,316
1686190163.5105278,317
1686190163.5269506,318
1686190163.5390038,319
1686190163.5549166,318
1686190163.5678406,317
1686190163.5800617,317
1686190163.5966964,318
1686190163.6083364,319
1686190163.6206746,319
1686190163.6371152,318
1686190163.649171,318
1686190163.6620078,318
1686190163.678893,320
1686190163.6908343,321
1686190163.7027147,320
1686190163.7185895,319
1686190163.7316582,318
1686190163.7476864,319
1686190163.7596736,320
1686190163.7721403,321
1686190163.7890768,320
1686190163.8010778,319
1686190163.8128629,319
1686190163.8292964,319
1686190163.8421452,320
1686190163.8544052,320
1686190163.870725,319
1686190163.8826926,318
1686190163.8989797,318
1686190163.9114294,319
1686190163.9239607,320
1686190163.940327,320
1686190163.9528513,319
1686190163.9648275,318
1686190163.980889,318
1686190163.9939322,320
1686190164.0060332,320
1686190164.0222516,320
1686190164.0349505,319
1686190164.0509467,318
1686190164.0636504,318
1686190164.0756485,319
1686190164.0920339,320
1686190164.1039157,319
1686190164.1159368,318
1686190164.1328576,318
1686190164.1449115,319
1686190164.1574914,321
1686190164.17391,321
1686190164.1861317,320
1686190164.1984837,319
1686190164.2152622,319
1686190164.2271214,320
1686190164.2437453,321
1686190164.2560081,321
1686190164.2677436,320
1686190164.284055,319
1686190164.2970026,319
1686190164.3089874,321
1686190164.3249888,322
1686190164.3369868,321
1686190164.3499892,319
1686190164.3659868,319
1686190164.3779857,319
1686190164.39499,320
1686190164.4069827,321
1686190164.4189882,320
1686190164.4359863,319
1686190164.4479825,319
1686190164.4601078,320
1686190164.4759855,321
1686190164.4890745,321
1686190164.501324,320
1686190164.517632,319
1686190164.5293806,319
1686190164.5419762,321
1686190164.5583012,322
1686190164.5712874,322
1686190164.587587,321
1686190164.599843,320
1686190164.612285,320
1686190164.6282916,321
1686190164.6402962,322
1686190164.6525755,321
1686190164.669539,320
1686190164.6815453,319
1686190164.6935441,319
1686190164.7105467,320
1686190164.7226524,321
1686190164.7386408,320
1686190164.7511384,318
1686190164.7639022,318
1686190164.7801847,319
1686190164.7926993,320
1686190164.8042004,320
1686190164.8203049,319
1686190164.8335693,318
1686190164.8455472,318
1686190164.8613033,320
1686190164.874159,321
1686190164.890957,320
1686190164.902771,319
1686190164.9152036,318
1686190164.9317462,319
1686190164.9437778,320
1686190164.9561374,321
1686190164.9730706,320
1686190164.9844503,319
1686190164.9972079,318
1686190165.0136218,318
1686190165.025715,320
1686190165.0381143,320
1686190165.05408,319
1686190165.0670207,319
1686190165.0829647,318
1686190165.095762,319
1686190165.1075573,320
1686190165.1236298,320
1686190165.1365864,318
1686190165.1479583,317
1686190165.1652045,317
1686190165.1775787,318
1686190165.189085,319
1686190165.2061152,318
1686190165.2178786,316
1686190165.2344756,315
1686190165.2468848,316
1686190165.2596133,317
1686190165.2759852,318
1686190165.28797,317
1686190165.3006353,316
1686190165.3165824,315
1686190165.3289266,316
1686190165.3411553,317
1686190165.357444,317
1686190165.3695202,316
1686190165.3821282,315
1686190165.3985727,315
1686190165.4109364,316
1686190165.4265847,317
1686190165.439989,317
1686190165.4521582,315
1686190165.467905,314
1686190165.480475,315
1686190165.4929235,317
1686190165.5090196,318
1686190165.521086,318
1686190165.5334525,316
1686190165.550026,316
1686190165.5624774,317
1686190165.5783541,318
1686190165.590394,319
1686190165.603264,318
1686190165.6191037,317
1686190165.6318629,316
1686190165.6444008,317
1686190165.6606386,318
1686190165.6726482,318
1686190165.6850605,317
1686190165.7015934,316
1686190165.7138486,317
1686190165.7302144,318
1686190165.742624,319
1686190165.7545927,319
1686190165.771542,318
1686190165.7836485,317
1686190165.7956452,317
1686190165.8123915,318
1686190165.8248453,319
1686190165.8364682,318
1686190165.8531287,317
1686190165.8667283,316
1686190165.8777204,317
1686190165.8937838,318
1686190165.9067597,318
1686190165.9223201,317
1686190165.9350839,316
1686190165.9473708,315
1686190165.9633162,316
1686190165.975414,318
1686190165.9882042,318
1686190166.0047948,317
1686190166.0177217,317
1686190166.0293655,317
1686190166.045289,318
1686190166.0580237,319
1686190166.074464,319
1686190166.086227,318
1686190166.098442,317
1686190166.1154683,317
1686190166.1276562,319
1686190166.139069,320
1686190166.1563044,320
1686190166.1688647,319
1686190166.1807342,318
1686190166.1972194,319
1686190166.2096798,320
1686190166.2256663,320
1686190166.2378576,319
1686190166.2503803,318
1686190166.2667823,318
1686190166.2791426,319
1686190166.29172,320
1686190166.3079104,320
1686190166.3201268,319
1686190166.3321261,318
1686190166.3490634,318
1686190166.361136,319
1686190166.373165,320
1686190166.3898299,319
1686190166.4014904,318
1686190166.4183095,317
1686190166.4306242,317
1686190166.4430172,319
1686190166.4592154,320
1686190166.471526,319
1686190166.4842398,318
1686190166.5007372,317
1686190166.5124073,318
1686190166.524996,319
1686190166.5413291,320
1686190166.553372,319
1686190166.5699208,317
1686190166.5829053,317
1686190166.5937605,318
1686190166.6107564,319
1686190166.6233385,319
1686190166.634928,318
1686190166.6513972,317
1686190166.6643941,317
1686190166.676342,318
1686190166.6929383,319
1686190166.705547,318
1686190166.7169898,316
1686190166.7342122,315
1686190166.7461164,316
1686190166.7627861,317
1686190166.7746296,318
1686190166.7873337,317
1686190166.8035376,316
1686190166.815652,315
1686190166.827885,316
1686190166.843937,317
1686190166.8569806,318
1686190166.8686528,316
1686190166.8847191,315
1686190166.8976681,315
1686190166.9139862,316
1686190166.9258893,318
1686190166.9384522,317
1686190166.9551291,316
1686190166.967021,315
1686190166.97986,315
1686190166.9959757,316
1686190167.0083132,317
1686190167.0204446,316
1686190167.0368915,315
1686190167.0503094,314
1686190167.0644975,315
1686190167.078022,316
1686190167.0897205,317
1686190167.1063633,316
1686190167.118347,315
1686190167.131145,315
1686190167.1468241,315
1686190167.159675,317
1686190167.1720145,317
1686190167.1879082,315
1686190167.2001433,314
1686190167.213159,315
1686190167.22972,316
1686190167.2418985,317
1686190167.257886,316
1686190167.2706175,315
1686190167.2823775,314
1686190167.2986252,315
1686190167.310982,316
1686190167.3236294,316
1686190167.339738,316
1686190167.3525412,314
1686190167.3648005,314
1686190167.3819988,314
1686190167.3925977,316
1686190167.4096928,316
1686190167.421669,315
1686190167.434364,314
1686190167.4499805,314
1686190167.4628508,315
1686190167.4752555,316
1686190167.4909198,316
1686190167.5039349,315
1686190167.5172617,314
1686190167.5325258,314
1686190167.545016,316
1686190167.5571742,317
1686190167.573753,316
1686190167.5858793,315
1686190167.6020117,314
1686190167.6147435,315
1686190167.6266806,316
1686190167.643125,318
1686190167.6553829,317
1686190167.667246,316
1686190167.6837745,315
1686190167.696567,317
1686190167.7089458,318
1686190167.724677,319
1686190167.7373922,318
1686190167.7536893,317
1686190167.7656906,317
1686190167.7782872,318
1686190167.7944276,319
1686190167.8064282,320
1686190167.8184834,318
1686190167.8354352,318
1686190167.8477867,318
1686190167.8594913,319
1686190167.876437,320
1686190167.8884876,319
1686190167.9044974,318
1686190167.9176137,317
1686190167.9296055,318
1686190167.9456604,319
1686190167.9576042,320
1686190167.9708033,319
1686190167.987127,318
1686190167.998602,317
1686190168.011609,318
1686190168.0276055,319
1686190168.0400178,319
1686190168.0518656,317
1686190168.068825,316
1686190168.0808637,316
1686190168.0969334,317
1686190168.1091163,318
1686190168.1220653,318
1686190168.1381347,317
1686190168.150253,317
1686190168.1631162,317
1686190168.1790388,319
1686190168.1912003,319
1686190168.2031965,319
1686190168.220306,317
1686190168.232358,317
1686190168.2483907,318
1686190168.261438,319
1686190168.273487,320
1686190168.2896543,319
1686190168.3020306,318
1686190168.3139768,318
1686190168.3304892,319
1686190168.342864,320
1686190168.355353,321
1686190168.371707,320
1686190168.384017,319
1686190168.396242,319
1686190168.4123118,320
1686190168.4252481,322
1686190168.4412887,321
1686190168.454162,320
1686190168.4656806,319
1686190168.482826,320
1686190168.4950852,321
1686190168.5075786,322
1686190168.5236275,321
1686190168.5359128,320
1686190168.5482502,319
1686190168.564967,319
1686190168.5770755,321
1686190168.5936165,321
1686190168.6050298,320
1686190168.617972,319
1686190168.6344426,319
1686190168.6465695,320
1686190168.6586127,320
1686190168.6756368,321
1686190168.6875455,319
1686190168.699316,318
1686190168.7158349,318
1686190168.7286756,320
1686190168.7436185,321
1686190168.757521,321
1686190168.7690098,319
1686190168.7861614,318
1686190168.7979486,318
1686190168.810424,320
1686190168.8267813,320
1686190168.8391492,320
1686190168.8514006,318
1686190168.868122,318
1686190168.8796935,319
1686190168.891756,320
1686190168.9087274,320
1686190168.9210231,320
1686190168.9370384,318
1686190168.949306,319
1686190168.9619937,320
1686190168.977916,321
1686190168.9907093,321
1686190169.0030785,320
1686190169.0196364,318
1686190169.0317051,318
1686190169.0439537,320
1686190169.0598965,321
1686190169.0728674,321
1686190169.0880759,319
1686190169.1012578,319
1686190169.113006,319
1686190169.129774,320
1686190169.1421964,321
1686190169.1547048,320
1686190169.1706314,319
1686190169.1826315,318
1686190169.1956851,319
1686190169.2119884,320
1686190169.22404,320
1686190169.2365518,319
1686190169.2525396,318
1686190169.265124,318
1686190169.2805614,319
1686190169.293959,320
1686190169.3054,319
1686190169.3226445,318
1686190169.334114,317
1686190169.3465724,317
1686190169.3634403,319
1686190169.3758683,320
1686190169.387983,319
1686190169.4039767,318
1686190169.4165866,318
1686190169.4329858,319
1686190169.4451952,320
1686190169.45741,321
1686190169.47386,320
1686190169.486132,318
1686190169.499112,318
1686190169.5146663,319
1686190169.5271955,319
1686190169.5397809,320
1686190169.5559273,319
1686190169.567882,318
1686190169.5838766,318
1686190169.5968833,319
1686190169.6091886,320
1686190169.6255722,320
1686190169.6370304,319
1686190169.6497667,318
1686190169.666508,318
1686190169.6784344,319
1686190169.6905887,320
1686190169.7080822,319
1686190169.7197354,318
1686190169.7318616,317
1686190169.748491,318
1686190169.7606952,320
1686190169.776656,320
1686190169.789176,319
1686190169.8015404,317
1686190169.8180313,317
1686190169.8299363,318
1686190169.8427038,320
1686190169.8592274,320
1686190169.8712676,318
1686190169.8835356,317
1686190169.899942,317
1686190169.9118488,318
1686190169.928475,319
1686190169.9403672,319
1686190169.9531426,318
1686190169.9688966,317
1686190169.9819546,317
1686190169.9939842,319
1686190170.010214,319
1686190170.022202,319
1686190170.0350459,317
1686190170.0519419,317
1686190170.0629387,317
1686190170.076038,318
1686190170.0919771,318
1686190170.1039977,317
1686190170.121206,315
1686190170.1335807,315
1686190170.1455722,317
1686190170.1618552,318
1686190170.1738958,318
1686190170.1863153,317
1686190170.2034953,315
1686190170.215263,316
1686190170.2274783,317
1686190170.2437942,318
1686190170.2555873,318
1686190170.2726464,317
1686190170.2845848,316
1686190170.2965882,316
1686190170.3135924,318
1686190170.3259027,319
1686190170.337634,318
1686190170.3545814,317
1686190170.3665485,317
1686190170.3785892,318
1686190170.3955612,319
1686190170.4085584,320
1686190170.4238815,319
1686190170.4361713,318
1686190170.4482222,317
1686190170.4651816,319
1686190170.4773967,320
1686190170.489169,320
1686190170.506225,319
1686190170.5181637,318
1686190170.5304859,318
1686190170.547171,319
1686190170.5591877,320
1686190170.5712388,320
1686190170.5879183,318
1686190170.5999403,318
1686190170.6169143,318
1686190170.6289165,319
1686190170.6409192,319
1686190170.6575553,318
1686190170.6695466,316
1686190170.6819808,315
1686190170.6986246,316
1686190170.7105465,317
1686190170.722545,317
1686190170.7394323,315
1686190170.7525868,314
1686190170.7680855,314
1686190170.7805636,315
1686190170.7926962,316
1686190170.808561,316
1686190170.8216248,314
1686190170.833913,313
1686190170.849762,313
1686190170.8627148,314
1686190170.874703,315
1686190170.8909936,314
1686190170.9027095,313
1686190170.9157069,313
1686190170.9317038,313
1686190170.9437008,314
1686190170.9607034,314
1686190170.9730492,314
1686190170.9846897,312
1686190171.0011823,312
1686190171.0137098,313
1686190171.0264614,314
1686190171.0424762,314
1686190171.0547438,312
1686190171.0676305,311
1686190171.0833974,311
1686190171.0960662,311
1686190171.1113935,311
1686190171.1244648,311
1686190171.1364548,310
1686190171.1534593,309
1686190171.1653848,309
1686190171.178388,310
1686190171.19378,310
1686190171.2064087,309
1686190171.2187123,308
1686190171.2351816,307
1686190171.2475626,306
1686190171.263572,306
1686190171.2761855,306
1686190171.2881954,304
1686190171.3045077,304
1686190171.3173559,304
1686190171.32918,305
1686190171.3459692,305
1686190171.3579707,306
1686190171.3701353,305
1686190171.386739,303
1686190171.398735,303
1686190171.4107506,304
1686190171.4267404,305
1686190171.4396574,305
1686190171.4561393,305
1686190171.4683347,305
1686190171.4806778,305
1686190171.4972794,307
1686190171.5096638,307
1686190171.5212073,307
1686190171.5374582,307
1686190171.5508952,306
1686190171.5625362,309
1686190171.5792203,310
1686190171.5913916,311
1686190171.6071417,311
1686190171.620082,312
1686190171.632113,313
1686190171.6481447,316
1686190171.6610107,319
1686190171.6730163,323
1686190171.6890173,326
1686190171.7020102,329
1686190171.7143254,334
1686190171.7309954,338
1686190171.742612,342
1686190171.7549279,344
1686190171.771561,345
1686190171.784548,347
1686190171.8004992,349
1686190171.8126247,350
1686190171.824817,352
1686190171.8414972,352
1686190171.8534935,351
1686190171.8655696,350
1686190171.8825386,349
1686190171.894497,349
1686190171.9069371,350
1686190171.9233243,348
1686190171.9354203,346
1686190171.9517772,345
1686190171.9644575,345
1686190171.976458,343
1686190171.9925094,342
1686190172.0047374,340
1686190172.0183551,338
1686190172.033397,337
1686190172.0460193,336
1686190172.0582292,336
1686190172.0749125,336
1686190172.0869143,334
1686190172.0991948,333
1686190172.1159155,334
1686190172.1279225,335
1686190172.1441605,336
1686190172.1566615,335
1686190172.1694493,333
1686190172.1854517,331
1686190172.1974435,330
1686190172.2095144,328
1686190172.2264545,325
1686190172.2385228,321
1686190172.250512,315
1686190172.2674475,307
1686190172.2795224,300
1686190172.2958105,291
1686190172.3075068,284
1686190172.3204846,277
1686190172.336424,271
1686190172.3484964,268
1686190172.361465,266
1686190172.377435,266
1686190172.3897989,268
1686190172.4024324,269
1686190172.4184477,272
1686190172.431392,276
1686190172.447386,281
1686190172.4597092,285
1686190172.4723856,289
1686190172.4884973,291
1686190172.500383,294
1686190172.5127513,299
1686190172.52939,302
1686190172.5411508,305
1686190172.554018,307
1686190172.5702133,310
1686190172.5829644,312
1686190172.5948918,316
1686190172.6118958,319
1686190172.6232119,321
1686190172.6402273,323
1686190172.6522253,324
1686190172.6642573,325
1686190172.6804621,326
1686190172.6932266,326
1686190172.7062259,324
1686190172.7222464,321
1686190172.7344654,319
1686190172.746297,319
1686190172.7629988,319
1686190172.774851,321
1686190172.791147,322
1686190172.803874,322
1686190172.8158236,322
1686190172.8328424,324
1686190172.8455908,325
1686190172.8572884,324
1686190172.8732202,323
1686190172.8857784,320
1686190172.8982906,319
1686190172.9143946,319
1686190172.926541,318
1686190172.9425983,317
1686190172.9555373,316
1686190172.9675221,315
1686190172.9835825,314
1686190172.9965355,315
1686190173.0085242,315
1686190173.0248399,314
1686190173.0375311,313
1686190173.04952,312
1686190173.0655875,312
1686190173.0778897,313
1686190173.0906138,313
1686190173.1065638,312
1686190173.1188598,311
1686190173.1356149,311
1686190173.1477911,312
1686190173.1595201,313
1686190173.1765232,313
1686190173.1888063,313
1686190173.2008631,313
1686190173.2175243,312
1686190173.229792,313
1686190173.2418423,314
1686190173.258215,314
1686190173.2701952,314
1686190173.2871315,314
1686190173.2995763,315
1686190173.3113465,316
1686190173.3280609,317
1686190173.3400483,318
1686190173.3527458,318
1686190173.369036,317
1686190173.3807197,318
1686190173.3937314,319
1686190173.4097133,320
1686190173.4220502,320
1686190173.4341934,320
1686190173.4508886,320
1686190173.462993,321
1686190173.479819,324
1686190173.4918056,325
1686190173.5038092,326
1686190173.5208063,327
1686190173.533288,329
1686190173.5451026,331
1686190173.5618541,332
1686190173.5737836,333
1686190173.5863001,333
1686190173.6020753,332
1686190173.6147645,332
1686190173.630787,331
1686190173.6427782,330
1686190173.6558099,328
1686190173.6717663,326
1686190173.684339,323
1686190173.6964138,322
1686190173.7127745,321
1686190173.7254605,320
1686190173.737414,318
1686190173.7540483,316
1686190173.7660599,315
1686190173.782153,314
1686190173.7951803,314
1686190173.8071408,313
1686190173.8238046,312
1686190173.83534,311
1686190173.8483515,311
1686190173.8643231,312
1686190173.8773491,313
1686190173.8890665,312
1686190173.9057488,312
1686190173.9177403,312
1686190173.9304893,313
1686190173.946465,314
1686190173.9584312,315
1686190173.974795,315
1686190173.987563,315
1686190174.0001538,315
1686190174.0156426,317
1686190174.0284584,318
1686190174.0407038,319
1686190174.0573876,318
1686190174.0693822,318
1686190174.0814323,318
1686190174.0975862,319
1686190174.1105926,320
1686190174.1267471,320
1686190174.1386433,319
1686190174.1512444,318
1686190174.167899,319
1686190174.1804104,320
1686190174.1916413,320
1686190174.2088156,319
1686190174.2209115,318
1686190174.2331595,318
1686190174.2498214,319
1686190174.2619324,319
1686190174.2741213,319
1686190174.29015,319
1686190174.3028066,318
1686190174.3191323,318
1686190174.330807,319
1686190174.3440347,319
1686190174.360055,320
1686190174.3728058,319
1686190174.3847852,319
1686190174.4011233,319
1686190174.4127867,320
1686190174.4257855,321
1686190174.4420183,321
1686190174.454057,320
1686190174.470747,319
1686190174.4827182,320
1686190174.4950852,321
1686190174.512383,321
1686190174.5237763,321
1686190174.5363781,320
1686190174.5533767,319
1686190174.5653696,319
1686190174.5773847,320
1686190174.5933952,320
1686190174.605753,320
1686190174.621569,319
1686190174.634697,319
1686190174.6470232,320
1686190174.6630497,321
1686190174.6753967,320
1686190174.687813,319
1686190174.7044995,318
1686190174.7164145,318
1686190174.7290275,319
1686190174.7451932,320
1686190174.757014,319
1686190174.770013,318
1686190174.7861311,317
1686190174.7980738,318
1686190174.8140104,319
1686190174.8270123,319
1686190174.8390162,318
1686190174.8556466,318
1686190174.867668,317
1686190174.879719,318
1686190174.8966494,319
1686190174.9089732,319
1686190174.9212885,319
1686190174.9376218,318
1686190174.949952,319
1686190174.965928,319
1686190174.9786165,320
1686190174.990676,321
1686190175.0069346,320
1686190175.0196166,319
1686190175.031615,319
1686190175.0480056,320
1686190175.0599961,320
1686190175.0729396,320
1686190175.0889924,319
1686190175.101077,319
1686190175.1139705,320
1686190175.1300466,321
1686190175.1419857,321
1686190175.1582317,321
1686190175.1709743,320
1686190175.183719,320
1686190175.1996856,321
1686190175.2115984,322
1686190175.2245855,322
1686190175.2408338,321
1686190175.2529187,320
1686190175.2649286,320
1686190175.281583,321
1686190175.2938929,322
1686190175.3096454,321
1686190175.3225873,321
1686190175.3349125,320
1686190175.351585,320
1686190175.3635852,321
1686190175.3759344,321
1686190175.3927362,321
1686190175.4045832,320
1686190175.4166644,320
1686190175.4331298,321
1686190175.4457846,322
1686190175.461302,322
1686190175.4743001,321
1686190175.4867954,320
1686190175.5028713,320
1686190175.5153003,320
1686190175.527911,321
1686190175.5442495,321
1686190175.5558994,320
1686190175.5678992,320
1686190175.5848405,320
1686190175.5968275,320
1686190175.608831,321
1686190175.6258378,320
1686190175.6378314,320
1686190175.6545134,319
1686190175.666866,319
1686190175.6794293,320
1686190175.6951127,320
1686190175.708221,319
1686190175.7202299,319
1686190175.7366843,318
1686190175.7494526,319
1686190175.760479,320
1686190175.7766857,320
1686190175.789667,320
1686190175.8060687,319
1686190175.818443,318
1686190175.8307805,319
1686190175.8469882,320
1686190175.8595345,320
1686190175.8717208,320
1686190175.8873928,319
1686190175.9004014,319
1686190175.9123297,320
1686190175.928917,321
1686190175.9409883,320
1686190175.9536452,320
1686190175.9696105,319
1686190175.9819195,319
1686190175.9986446,320
1686190176.0107038,321
1686190176.022767,321
1686190176.039893,320
1686190176.0519125,319
1686190176.06383,320
1686190176.08079,320
1686190176.0927866,321
1686190176.1047788,320
1686190176.120787,319
1686190176.133788,319
1686190176.149774,319
1686190176.1624622,320
1686190176.17489,320
1686190176.1907768,319
1686190176.202786,318
1686190176.2157907,319
1686190176.231779,319
1686190176.2437778,319
1686190176.2557745,319
1686190176.2727692,318
1686190176.2847743,317
1686190176.2967732,317
1686190176.3137739,318
1686190176.3257725,318
1686190176.3417733,317
1686190176.3542047,316
1686190176.3671763,316
1686190176.3833568,317
1686190176.3954005,318
1686190176.4082468,319
1686190176.424544,319
1686190176.4365811,319
1686190176.448634,320
1686190176.4655733,322
1686190176.4776373,324
1686190176.4939988,327
1686190176.506725,330
1686190176.5190165,334
1686190176.5352285,340
1686190176.5473092,346
1686190176.5599885,351
1686190176.5759346,353
1686190176.5885901,354
1686190176.6009057,353
1686190176.617173,352
1686190176.6293087,348
1686190176.645342,342
1686190176.6580148,334
1686190176.6700072,326
1686190176.6869905,320
1686190176.6989172,315
1686190176.7112205,311
1686190176.7279897,308
1686190176.7398918,305
1686190176.75242,302
1686190176.7687614,302
1686190176.780659,302
1686190176.7933638,303
1686190176.808846,302
1686190176.8218236,302
1686190176.8378212,302
1686190176.8503342,303
1686190176.8633149,304
1686190176.8784664,305
1686190176.8915539,306
1686190176.9037974,305
1686190176.9198148,306
1686190176.9327729,307
1686190176.9444783,309
1686190176.9607995,310
1686190176.9732306,310
1686190176.9894989,310
1686190177.0019333,310
1686190177.0146487,312
1686190177.0309398,313
1686190177.0431433,314
1686190177.0553298,314
1686190177.072271,313
1686190177.0839221,314
1686190177.0962462,315
1686190177.1126559,316
1686190177.124655,316
1686190177.1416614,316
1686190177.1535854,316
1686190177.165631,316
1686190177.181741,317
1686190177.1940067,318
1686190177.2069228,318
1686190177.2233548,317
1686190177.235587,317
1686190177.247631,317
1686190177.2636406,318
1686190177.276057,319
1686190177.2889564,317
1686190177.305304,316
1686190177.3176708,316
1686190177.33375,317
1686190177.3453872,318
1686190177.3579752,318
1686190177.374825,317
1686190177.386823,316
1686190177.3997579,316
1686190177.4153824,317
1686190177.4283752,317
1686190177.4399633,317
1686190177.456882,316
1686190177.4686284,316
1686190177.4851584,316
1686190177.4978924,318
1686190177.509843,318
1686190177.5266726,318
1686190177.5379403,317
1686190177.550991,317
1686190177.567209,318
1686190177.5801716,319
1686190177.5919313,319
1686190177.6076624,318
1686190177.620886,317
1686190177.6329355,317
1686190177.648598,318
1686190177.66145,318
1686190177.6774516,318
1686190177.6899467,317
1686190177.7025976,316
1686190177.7186747,317
1686190177.7310956,318
1686190177.7437556,318
1686190177.7595098,318
1686190177.7721612,317
1686190177.7846415,316
1686190177.8000593,317
1686190177.8136334,318
1686190177.8286963,318
1686190177.8417566,318
1686190177.8539534,317
1686190177.870463,317
1686190177.882962,318
1686190177.8951857,319
1686190177.911415,319
1686190177.923664,318
1686190177.935952,318
1686190177.952537,318
1686190177.9646003,318
1686190177.980715,319
1686190177.9934623,319
1686190178.0056248,318
1686190178.0221624,317
1686190178.034171,317
1686190178.046226,318
1686190178.062682,318
1686190178.0753021,318
1686190178.087588,317
1686190178.1038437,316
1686190178.1156957,317
1686190178.1280296,317
1686190178.1450462,318
1686190178.157104,317
1686190178.1733115,316
1686190178.1851413,316
1686190178.1980565,317
1686190178.2146113,318
1686190178.2268336,318
1686190178.239103,317
1686190178.2556722,316
1686190178.267913,317
1686190178.2798948,318
1686190178.2965832,318
1686190178.3080118,318
1686190178.3251228,317
1686190178.337247,316
1686190178.3490155,317
1686190178.3659277,318
1686190178.3779285,319
1686190178.3910027,318
1686190178.4063725,317
1686190178.419169,317
1686190178.4311628,318
1686190178.447979,319
1686190178.4600158,319
1686190178.4723465,318
1686190178.4889255,318
1686190178.5008178,318
1686190178.516741,319
1686190178.529824,319
1686190178.542175,319
1686190178.5588577,318
1686190178.5705988,317
1686190178.5830436,317
1686190178.5995321,318
1686190178.611748,319
1686190178.6239717,319
1686190178.6400828,318
1686190178.6519046,318
1686190178.6691837,318
1686190178.6811664,319
1686190178.6941516,319
1686190178.7101705,319
1686190178.7222254,318
1686190178.7345512,317
1686190178.7516031,318
1686190178.7633646,319
1686190178.7750041,319
1686190178.7917924,318
1686190178.804598,317
1686190178.8209372,317
1686190178.8328702,317
1686190178.8447075,318
1686190178.8609242,318
1686190178.8741863,317
1686190178.8862276,316
1686190178.9027174,316
1686190178.914713,317
1686190178.926728,318
1686190178.9437218,317
1686190178.955445,317
1686190178.9676938,316
1686190178.9848006,316
1686190178.996899,318
1686190179.0127678,318
1686190179.0254707,318
1686190179.0374494,317
1686190179.0541003,317
1686190179.066434,318
1686190179.0781848,319
1686190179.0951283,319
1686190179.107458,318
1686190179.1199412,318
1686190179.136212,317
1686190179.1485145,319
1686190179.1641428,319
1686190179.1765592,319
1686190179.189656,318
1686190179.2051072,317
1686190179.2180002,317
1686190179.230479,317
1686190179.2466683,318
1686190179.2590425,318
1686190179.2710888,316
1686190179.2876127,315
1686190179.2995408,316
1686190179.3164783,317
1686190179.3278363,318
1686190179.3409963,317
1686190179.3568113,316
1686190179.3698037,316
1686190179.3819165,316
1686190179.398228,317
1686190179.4098597,318
1686190179.422788,317
1686190179.4386406,317
1686190179.4516764,317
1686190179.4638233,318
1686190179.4799886,319
1686190179.4923463,319
1686190179.5089805,318
1686190179.5206103,318
1686190179.5333974,318
1686190179.5498633,318
1686190179.5619342,319
1686190179.574313,319
1686190179.5906322,318
1686190179.6029906,318
1686190179.6150367,318
1686190179.6310978,319
1686190179.643831,319
1686190179.6598716,319
1686190179.6722288,318
1686190179.6842372,318
1686190179.7010221,318
1686190179.7128603,319
1686190179.7259092,318
1686190179.7425427,318
1686190179.7544937,317
1686190179.7667563,317
1686190179.7829542,318
1686190179.7962704,319
1686190179.8072476,318
1686190179.8238227,317
1686190179.8367503,317
1686190179.8529277,317
1686190179.8649914,318
1686190179.8773067,318
1686190179.8942657,317
1686190179.9060433,316
1686190179.918032,315
1686190179.934088,316
1686190179.9471529,317
1686190179.959333,317
1686190179.9749894,316
1686190179.9880164,315
1686190180.003983,315
1686190180.0169194,316
1686190180.0287166,318
1686190180.0454235,318
1686190180.0574262,317
1686190180.0699356,317
1686190180.0865972,318
1686190180.0985475,319
1686190180.1102057,320
1686190180.1273723,319
1686190180.1394348,318
1686190180.1516197,317
1686190180.168242,318
1686190180.18075,319
1686190180.196467,319
1686190180.2083848,319
1686190180.2216842,318
1686190180.237679,317
1686190180.2501233,318
1686190180.2623491,319
1686190180.2789228,319
1686190180.29097,319
1686190180.3035808,318
1686190180.3197498,318
1686190180.331729,319
1686190180.3485034,320
1686190180.3600156,320
1686190180.3729293,319
1686190180.3888426,318
1686190180.4020846,318
1686190180.4138892,319
1686190180.4298973,320
1686190180.4427602,320
1686190180.4548492,319
1686190180.4715934,318
1686190180.4833872,319
1686190180.4993975,320
1686190180.5117068,320
1686190180.524109,320
1686190180.5407896,318
1686190180.5528958,318
1686190180.5650177,318
1686190180.5819845,319
1686190180.5941474,319
1686190180.6057887,318
1686190180.622382,317
1686190180.6351068,317
1686190180.647625,318
1686190180.663771,319
1686190180.6760225,319
1686190180.6924677,318
1686190180.7049751,317
1686190180.7171285,317
1686190180.7331717,318
1686190180.7456496,319
1686190180.7587323,318
1686190180.7738187,318
1686190180.7868207,317
1686190180.799007,317
1686190180.8156457,318
1686190180.827549,319
1686190180.8430943,318
1686190180.8562784,317
1686190180.867978,317
1686190180.8847275,317
1686190180.896851,319
1686190180.9091413,318
1686190180.9256082,317
1686190180.9380774,317
1686190180.9505162,317
1686190180.9669917,317
1686190180.9793608,318
1686190180.9952047,318
1686190181.007974,317
1686190181.0198033,317
1686190181.0358543,317
1686190181.0489361,318
1686190181.0610635,319
1686190181.077444,318
1686190181.089799,317
1686190181.1014876,317
1686190181.1196053,318
1686190181.1306396,319
1686190181.1430876,319
1686190181.1591923,318
1686190181.1715775,317
1686190181.18751,317
1686190181.2005055,318
1686190181.212609,318
1686190181.228741,319
1686190181.2413044,318
1686190181.2532406,317
1686190181.2697458,317
1686190181.2819448,318
1686190181.294482,318
1686190181.310851,318
1686190181.3223767,317
1686190181.3392105,317
1686190181.35214,317
1686190181.364202,318
1686190181.3808796,319
1686190181.3922663,319
1686190181.4046984,318
1686190181.421754,317
1686190181.4331005,318
1686190181.4461288,319
1686190181.4624188,319
1686190181.474233,319
1686190181.4874952,318
1686190181.5034535,317
1686190181.5157404,318
1686190181.531605,318
1686190181.54355,319
1686190181.5566225,318
1686190181.5731592,316
1686190181.585357,317
1686190181.5972354,317
1686190181.6139815,317
1686190181.6257935,317
1686190181.6388218,316
1686190181.6547964,315
1686190181.6669316,315
1686190181.683211,315
1686190181.695881,316
1686190181.707936,315
1686190181.7247517,313
1686190181.7366362,312
1686190181.7486377,312
1686190181.7657032,312
1686190181.7778873,312
1686190181.7898939,310
1686190181.8059192,309
1686190181.818863,308
1686190181.8349118,309
1686190181.8469303,310
1686190181.858882,310
1686190181.8757904,309
1686190181.887847,308
1686190181.8998275,308
1686190181.9168155,308
1686190181.9288218,309
1686190181.9408264,308
1686190181.9577863,307
1686190181.9698193,306
1686190181.9819121,306
1686190181.998538,307
1686190182.0114403,307
1686190182.0273955,306
1686190182.0394053,305
1686190182.0523977,305
1686190182.068745,305
1686190182.080719,306
1686190182.093077,306
1686190182.1093607,306
1686190182.1220028,305
1686190182.133486,305
1686190182.1504855,306
1686190182.162562,307
1686190182.1788638,307
1686190182.1915863,306
1686190182.2037683,306
1686190182.2194853,306
1686190182.2324896,306
1686190182.244853,307
1686190182.261209,307
1686190182.273347,306
1686190182.28592,305
1686190182.3019178,305
1686190182.3142283,306
1686190182.3259742,307
1686190182.3428946,306
1686190182.355348,305
1686190182.3715916,305
1686190182.3842483,305
1686190182.396251,306
1686190182.412632,307
1686190182.4252577,306
1686190182.4370627,306
1686190182.4537523,306
1686190182.4658494,307
1686190182.4776678,308
1686190182.4946742,307
1686190182.5068886,307
1686190182.5226827,307
1686190182.5356622,308
1686190182.5486703,309
1686190182.563664,310
1686190182.5765288,310
1686190182.58887,310
1686190182.6048117,312
1686190182.617527,314
1686190182.6297426,318
1686190182.6462245,323
1686190182.6582227,328
1686190182.674151,332
1686190182.6872098,337
1686190182.6994867,343
1686190182.7154737,348
1686190182.7281487,353
1686190182.7402904,356
1686190182.7562995,358
1686190182.7691538,359
1686190182.7812836,362
1686190182.7971506,363
1686190182.810147,364
1686190182.8222523,362
1686190182.8385222,361
1686190182.8505154,359
1686190182.866988,358
1686190182.8795125,357
1686190182.8915575,356
1686190182.908156,353
1686190182.9212325,352
1686190182.9331594,351
1686190182.9492333,352
1686190182.9611518,351
1686190182.9741478,350
1686190182.9902291,347
1686190183.002159,346
1686190183.018424,344
1686190183.031152,344
1686190183.0431404,342
1686190183.0592296,340
1686190183.0722394,339
1686190183.0845447,337
1686190183.1005025,336
1686190183.1132026,337
1686190183.125205,337
1686190183.141935,335
1686190183.1548047,334
1686190183.166126,334
1686190183.182872,333
1686190183.1950517,332
1686190183.211131,328
1686190183.2240646,322
1686190183.2358716,314
1686190183.2521133,305
1686190183.2648606,297
1686190183.276871,288
1686190183.2934437,279
1686190183.3053586,272
1686190183.317592,267
1686190183.3343744,264
1686190183.34637,262
1686190183.3630388,260
1686190183.3753166,259
1686190183.3873546,258
1686190183.4040375,260
1686190183.4160304,263
1686190183.4285812,265
1686190183.445039,268
1686190183.457243,271
1686190183.4694529,274
1686190183.486005,278
1686190183.4980874,282
1686190183.5140035,287
1686190183.5270388,291
1686190183.5390787,295
1686190183.5553572,298
1686190183.5680244,302
1686190183.5800188,306
1686190183.5963883,309
1686190183.6083324,312
1686190183.6210911,314
1686190183.6370566,316
1686190183.6498387,319
1686190183.6618445,322
1686190183.6781647,324
1686190183.6908474,325
1686190183.706763,324
1686190183.7188315,323
1686190183.7317648,323
1686190183.7478948,321
1686190183.7600794,320
1686190183.7717626,318
1686190183.788846,317
1686190183.8010404,317
1686190183.8137612,317
1686190183.8297608,317
1686190183.8417594,316
1686190183.8577738,315
1686190183.8708386,314
1686190183.8837595,315
1686190183.8997595,316
1686190183.9118338,317
1686190183.9237595,316
1686190183.9408312,316
1686190183.952854,316
1686190183.9649823,317
1686190183.9817839,318
1686190183.9931955,319
1686190184.0062304,319
1686190184.02168,319
1686190184.0342302,320
1686190184.0511549,320
1686190184.0636384,322
1686190184.0755181,322
1686190184.0921528,321
1686190184.104237,322
1686190184.1165695,322
1686190184.133194,323
1686190184.1451118,324
1686190184.1571825,323
1686190184.1741233,322
1686190184.1858199,322
1686190184.2018304,323
1686190184.2148373,324
1686190184.227144,324
1686190184.2438228,324
1686190184.255823,323
1686190184.2683036,323
1686190184.2848155,324
1686190184.2968845,324
1686190184.3088093,325
1686190184.325018,324
1686190184.337739,323
1686190184.3537393,323
1686190184.3657453,324
1686190184.3787386,324
1686190184.3947327,324
1686190184.4069908,323
1686190184.4197352,323
1686190184.4357514,323
1686190184.4480596,324
1686190184.4607384,324
1686190184.4769814,323
1686190184.4887378,323
1686190184.501787,322
1686190184.517654,322
1686190184.5299644,323
1686190184.5466347,324
1686190184.558767,323
1686190184.5709672,322
1686190184.5876486,322
1686190184.5998566,322
1686190184.6119268,323
1686190184.6288455,323
1686190184.6407204,322
1686190184.6526318,321
1686190184.66971,322
1686190184.6816373,322
1686190184.6983016,323
1686190184.7099473,323
1686190184.7234714,322
1686190184.7393198,321
1686190184.751474,321
1686190184.763631,322
1686190184.7803159,322
1686190184.7924056,322
1686190184.804662,321
1686190184.8213193,320
1686190184.8336482,321
1686190184.8456738,322
1686190184.862012,322
1686190184.8737516,321
1686190184.890679,321
1686190184.9026773,320
1686190184.9150138,321
1686190184.9316473,321
1686190184.9439113,321
1686190184.956122,320
1686190184.9723766,320
1686190184.9848492,320
1686190184.99738,320
1686190185.0133667,321
1686190185.025763,320
1686190185.042177,319
1686190185.0541828,319
1686190185.066938,319
1686190185.0830643,320
1686190185.0952005,322
1686190185.1078613,321
1686190185.1239407,320
1686190185.1365201,320
1686190185.1484535,321
1686190185.164811,322
1686190185.177447,322
1686190185.1934078,322
1686190185.2063498,321
1686190185.2183576,321
1686190185.234679,321
1686190185.246726,322
1686190185.2594237,322
1686190185.2757015,321
1686190185.287688,320
1686190185.3003733,320
1686190185.3168645,321
1686190185.3284864,321
1686190185.3413527,321
1686190185.3574228,320
1686190185.369675,320
1686190185.3863492,320
1686190185.3983903,321
1686190185.4104207,321
1686190185.4279447,321
1686190185.439359,320
1686190185.451678,320
1686190185.4683561,320
1686190185.480352,321
1686190185.4927056,321
1686190185.5093546,320
1686190185.521427,319
1686190185.537628,319
1686190185.5499132,320
1686190185.5625975,320
1686190185.5790098,321
1686190185.5910375,319
1686190185.6031046,319
1686190185.6199708,319
1686190185.631971,320
1686190185.644123,320
1686190185.6608036,320
1686190185.672798,319
1686190185.6848168,318
1686190185.70161,319
1686190185.7135334,320
1686190185.7305293,320
1686190185.742606,320
1686190185.75453,319
1686190185.7705212,319
1686190185.783656,320
1686190185.7955444,321
1686190185.8115344,321
1686190185.8242161,321
1686190185.836521,320
1686190185.8532016,320
1686190185.865214,321
1686190185.8815749,321
1686190185.8942704,321
1686190185.9062903,321
1686190185.9232376,320
1686190185.9354255,321
1686190185.9469235,321
1686190185.9640472,321
1686190185.97591,321
1686190185.9882522,320
1686190186.0049148,319
1686190186.0170386,320
1686190186.0325634,320
1686190186.0452957,320
1686190186.0582957,320
1686190186.0742946,319
1686190186.086624,319
1686190186.0982916,319
1686190186.1154065,320
1686190186.127581,320
1686190186.1402452,320
1686190186.1559632,318
1686190186.1688805,318
1686190186.1808908,319
1686190186.1968813,319
1686190186.2092292,319
1686190186.225958,318
1686190186.2379358,318
1686190186.250882,318
1686190186.266879,318
1686190186.278896,319
1686190186.2914052,318
1686190186.307162,317
1686190186.3201568,316
1686190186.3325062,317
1686190186.3492405,318
1686190186.3606102,319
1686190186.3766072,318
1686190186.3896077,318
1686190186.401932,318
1686190186.4186149,319
1686190186.4306834,320
1686190186.4432418,320
1686190186.4597182,319
1686190186.4713478,319
1686190186.4843507,319
1686190186.4999294,319
1686190186.5126648,320
1686190186.5249205,320
1686190186.5407288,320
1686190186.5536742,319
1686190186.5697222,319
1686190186.5826716,320
1686190186.5946667,320
1686190186.611112,319
1686190186.6227684,318
1686190186.6347766,318
1686190186.65177,318
1686190186.6637871,319
1686190186.6757903,319
1686190186.692838,319
1686190186.70477,318
1686190186.7208238,318
1686190186.7337716,319
1686190186.7460496,319
1686190186.7620566,319
1686190186.774053,318
1686190186.7870457,317
1686190186.80305,318
1686190186.8151116,319
1686190186.828066,319
1686190186.843637,319
1686190186.8566353,318
1686190186.872635,318
1686190186.8846326,318
1686190186.8976943,319
1686190186.9137013,320
1686190186.926454,319
1686190186.9386332,318
1686190186.954851,318
1686190186.9670625,318
1686190186.9790692,319
1686190186.9950736,319
1686190187.0080023,318
1686190187.0200531,317
1686190187.036059,317
1686190187.0490005,318
1686190187.0650074,318
1686190187.0770688,318
1686190187.0900695,318
1686190187.1060646,317
1686190187.1180692,318
1686190187.1310008,318
1686190187.147115,319
1686190187.1588268,319
1686190187.1721108,318
1686190187.187722,317
1686190187.2001305,317
1686190187.2163305,318
1686190187.2293642,319
1686190187.2414937,318
1686190187.2572997,317
1686190187.2703419,317
1686190187.2823598,317
1686190187.2985911,318
1686190187.3106058,318
1686190187.3227265,317
1686190187.3399458,317
1686190187.3520443,317
1686190187.3640645,317
1686190187.3800611,318
1686190187.3930535,319
1686190187.4090621,318
1686190187.4210603,317
1686190187.4340637,318
1686190187.4500551,318
1686190187.4622097,319
1686190187.4752135,319
1686190187.4912012,318
1686190187.503215,318
1686190187.5152018,318
1686190187.532203,319
1686190187.5442033,320
1686190187.5608222,319
1686190187.5730178,318
1686190187.5848472,317
1686190187.6018567,317
1686190187.6138499,318
1686190187.626925,318
1686190187.6427975,318
1686190187.6548533,317
1686190187.6668515,317
1686190187.6837916,318
1686190187.6958497,319
1686190187.7118537,319
1686190187.7252133,318
1686190187.7370307,317
1686190187.7530942,316
1686190187.7660096,317
1686190187.778023,318
1686190187.7940066,317
1686190187.8070037,316
1686190187.8190658,316
1686190187.835076,317
1686190187.8473501,318
1686190187.8599627,318
1686190187.8760188,317
1686190187.8884256,316
1686190187.9049647,316
1686190187.9170387,317
1686190187.9299626,318
1686190187.946038,318
1686190187.9580321,317
1686190187.9709663,316
1686190187.9869566,316
1686190187.9990294,317
1686190188.011736,318
1686190188.0277936,317
1686190188.040063,316
1686190188.0564647,316
1686190188.0687559,317
1686190188.0813313,320
1686190188.0974638,323
1686190188.1098304,327
1686190188.1217122,331
1686190188.1387334,334
1686190188.1507306,337
1686190188.1638927,339
1686190188.1797445,339
1686190188.1914368,337
1686190188.20436,333
1686190188.2208207,328
1686190188.232937,323
1686190188.2497613,320
1686190188.2616599,317
1686190188.2737517,313
1686190188.2901483,310
1686190188.3022134,309
1686190188.3151736,309
1686190188.3315616,310
1686190188.3435752,310
1686190188.3557584,310
1686190188.3717082,310
1686190188.3842826,312
1686190188.4008083,314
1686190188.412894,315
1686190188.4249651,316
1686190188.4419613,316
1686190188.4547246,317
1686190188.4667056,318
1686190188.4825869,320
1686190188.4945674,321
1686190188.5069637,321
1686190188.5239956,321
1686190188.5359483,322
1686190188.5518506,323
1686190188.564727,324
1686190188.5767317,324
1686190188.5927384,323
1686190188.6047819,322
1686190188.6178746,321
1686190188.634077,321
1686190188.6463726,321
1686190188.6590521,320
1686190188.6749501,317
1686190188.6875932,316
1686190188.6997201,315
1686190188.7157326,314
1686190188.7287774,313
1686190188.7448523,311
1686190188.7569792,309
1686190188.7692702,308
1686190188.785944,308
1686190188.7981813,309
1686190188.8100603,309
1686190188.8269415,307
1686190188.8387516,306
1686190188.8509982,306
1686190188.8674207,306
1686190188.8800063,308
1686190188.8960102,308
1686190188.9088924,307
1686190188.9210625,307
1686190188.9373832,308
1686190188.9495697,309
1686190188.961513,311
1686190188.978609,312
1686190188.9906507,312
1686190189.002652,312
1686190189.0196478,313
1686190189.0319092,314
1686190189.043697,316
1686190189.0597486,316
1686190189.0726047,316
1686190189.0888293,316
1686190189.1018987,318
1686190189.11307,319
1686190189.129947,319
1686190189.1419156,319
1686190189.1547391,318
1686190189.1709876,319
1686190189.182972,319
1686190189.1955688,320
1686190189.2119248,320
1686190189.2242303,319
1686190189.2402303,318
1686190189.252956,318
1686190189.2650247,319
1686190189.2807384,319
1686190189.2937338,318
1686190189.3059564,317
1686190189.3218436,316
1686190189.3349552,316
1686190189.347082,317
1686190189.3628948,317
1686190189.375577,317
1686190189.3920302,316
1686190189.404188,315
1686190189.4169352,316
1686190189.433041,317
1686190189.4451628,317
1686190189.4574804,317
1686190189.4738116,316
1686190189.486523,316
1686190189.4981353,317
1686190189.5143714,318
1686190189.5274484,318
1686190189.5388467,317
1686190189.5558188,317
1686190189.5682573,318
1686190189.58425,319
1686190189.5969,320
1686190189.6090062,320
1686190189.6252353,319
1686190189.637163,319
1686190189.6501088,319
1686190189.6661491,320
1686190189.6789155,320
1686190189.690441,319
1686190189.7070584,318
1686190189.7199993,318
1686190189.7356086,318
1686190189.7477741,319
1686190189.760713,319
1686190189.7770638,318
1686190189.789498,319
1686190189.8018007,318
1686190189.8178651,319
1686190189.8300369,320
1686190189.8424983,320
1686190189.8588958,319
1686190189.8707407,318
1686190189.8829525,319
1686190189.9000053,319
1686190189.9125419,320
1686190189.9287775,319
1686190189.9409113,319
1686190189.9540327,318
1686190189.9698694,319
1686190189.9814112,320
1686190189.994324,320
1686190190.0105126,320
1686190190.0223038,319
1686190190.0350037,319
1686190190.0517259,319
1686190190.0638463,320
1686190190.0801287,320
1686190190.0926418,319
1686190190.1045573,318
1686190190.1206172,318
1686190190.1334596,319
1686190190.1452892,320
1686190190.162254,319
1686190190.1745377,318
1686190190.1862442,317
1686190190.2031226,317
1686190190.2152805,318
1686190190.231885,318
1686190190.2439618,317
1686190190.2559474,317
1686190190.272288,316
1686190190.2847743,316
1686190190.2974343,317
1686190190.3128476,318
1686190190.3259382,317
1686190190.3373826,317
1686190190.3544748,316
1686190190.3668544,317
1686190190.3788273,318
1686190190.3955674,318
1686190190.4079504,318
1686190190.4245217,317
1686190190.4368005,317
1686190190.4482274,318
1686190190.4652405,319
1686190190.4770644,319
1686190190.4894218,318
1686190190.506316,318
1686190190.5183125,318
1686190190.5309515,319
1686190190.5469432,319
1686190190.558943,319
1686190190.5757277,318
1686190190.5882406,318
1686190190.6003506,318
1686190190.6169364,319
1686190190.6290667,320
1686190190.6415806,319
1686190190.657488,319
1686190190.669951,318
1686190190.6823878,319
1686190190.698164,319
1686190190.7105033,320
1686190190.723569,319
1686190190.7393782,318
1686190190.7520492,318
1686190190.7677798,318
1686190190.7807913,319
1686190190.7929308,319
1686190190.80924,318
1686190190.8207593,318
1686190190.8332074,318
1686190190.8503604,318
1686190190.862039,319
1686190190.8744328,319
1686190190.8912044,318
1686190190.9033668,318
1686190190.919742,319
1686190190.93174,319
1686190190.944628,320
1686190190.9599807,319
1686190190.9731424,318
1686190190.9853835,318
1686190191.0025485,319
1686190191.0135787,320
1686190191.026543,319
1686190191.041908,318
1686190191.054572,317
1686190191.070696,317
1686190191.0836878,317
1686190191.0957024,318
1686190191.1117382,317
1686190191.1236956,317
1686190191.1365974,316
1686190191.153366,317
1686190191.165022,318
1686190191.1772702,318
1686190191.1937118,317
1686190191.2057095,316
1686190191.218706,316
1686190191.2347188,317
1686190191.246713,318
1686190191.2637148,318
1686190191.2757137,317
1686190191.2877173,317
1686190191.3047054,317
1686190191.316774,317
1686190191.3291056,318
1686190191.345061,318
1686190191.358036,317
1686190191.3700445,317
1686190191.3860447,317
1686190191.3990965,317
1686190191.4151073,318
1686190191.4271045,318
1686190191.439104,317
1686190191.4561028,317
1686190191.4680357,317
1686190191.4800432,318
1686190191.497048,318
1686190191.5090432,318
1686190191.5210397,317
1686190191.53809,317
1686190191.5500607,317
1686190191.5660896,318
1686190191.579041,318
1686190191.5915382,317
1686190191.6076777,317
1686190191.620004,317
1686190191.6320827,318
1686190191.648714,319
1686190191.6605852,319
1686190191.6727662,318
1686190191.689726,318
1686190191.7017841,318
1686190191.713782,319
1686190191.730727,320
1686190191.7427802,319
1686190191.7591634,318
1686190191.7717748,318
1686190191.7837703,318
1686190191.799777,318
1686190191.81198,319
1686190191.8247092,318
1686190191.8407428,317
1686190191.85275,317
1686190191.865715,317
1686190191.881713,318
1686190191.8937051,319
1686190191.9097643,318
1686190191.9227715,318
1686190191.9347003,318
1686190191.951768,319
1686190191.964177,319
1686190191.976172,319
1686190191.9921615,318
1686190192.0051684,317
1686190192.017182,318
1686190192.0332155,318
1686190192.045215,318
1686190192.0584736,318
1686190192.0742288,317
1686190192.0861733,316
1686190192.1031754,316
1686190192.115173,317
1686190192.1271691,317
1686190192.1441736,317
1686190192.1561685,316
1686190192.168218,316
1686190192.18518,317
1686190192.1972396,318
1686190192.2092297,318
1686190192.2261777,317
1686190192.2381692,317
1686190192.2542355,316
1686190192.2672324,318
1686190192.2791784,318
1686190192.2961845,318
1686190192.3081846,317
1686190192.3201845,317
1686190192.3361726,317
1686190192.3491795,318
1686190192.361222,318
1686190192.3772438,318
1686190192.3892422,318
1686190192.4061685,317
1686190192.4184566,318
1686190192.431232,319
1686190192.4472356,319
1686190192.4592288,319
1686190192.4721873,318
1686190192.4881735,318
1686190192.5002232,318
1686190192.5121686,319
1686190192.5292318,319
1686190192.54123,319
1686190192.5534549,318
1686190192.570169,318
1686190192.58224,320
1686190192.5981624,320
1686190192.611183,320
1686190192.6231732,319
1686190192.639231,318
1686190192.6522155,319
1686190192.6642318,319
1686190192.6802301,320
1686190192.6933188,320
1686190192.705166,319
1686190192.7212288,319
1686190192.7341843,319
1686190192.75018,320
1686190192.7622287,320
1686190192.7752337,319
1686190192.791162,318
1686190192.803163,318
1686190192.8161886,319
1686190192.8321633,320
1686190192.8441727,319
1686190192.857173,319
1686190192.8732908,318
1686190192.8852901,318
1686190192.897284,319
1686190192.9142842,320
1686190192.926333,319
1686190192.9423463,318
1686190192.955347,318
1686190192.9673457,318
1686190192.983967,319
1686190192.9963605,320
1686190193.0083468,319
1686190193.0242856,318
1686190193.0372782,318
1686190193.049278,318
1686190193.0655048,319
1686190193.0783687,319
1686190193.0945613,319
1686190193.106557,318
1686190193.1185606,318
1686190193.1355844,319
1686190193.1475658,319
1686190193.1595683,319
1686190193.176519,319
1686190193.1885772,318
1686190193.2006762,318
1686190193.2175643,319
1686190193.229502,319
1686190193.2455487,319
1686190193.2585201,318
1686190193.2705564,318
1686190193.2865572,318
1686190193.2995722,319
1686190193.3115518,320
1686190193.327793,319
1686190193.340498,319
1686190193.3524988,318
1686190193.3689547,318
1686190193.3809588,319
1686190193.39295,320
1686190193.4099703,319
1686190193.4219491,318
1686190193.438019,317
1686190193.4510262,318
1686190193.4630237,318
1686190193.479049,318
1686190193.4920607,317
1686190193.5039818,317
1686190193.520033,317
1686190193.5320327,318
1686190193.5449815,319
1686190193.5609796,319
1686190193.57298,318
1686190193.5900502,318
1686190193.6020336,318
1686190193.6149957,319
1686190193.6309903,319
1686190193.6434417,319
1686190193.6559803,317
1686190193.672034,317
1686190193.6840477,318
1686190193.696033,318
1686190193.7130325,318
1686190193.725045,317
1686190193.7370455,316
1686190193.7540522,316
1686190193.76598,317
1686190193.782054,317
1686190193.795001,317
1686190193.8070543,316
1686190193.8229907,316
1686190193.8359885,316
1686190193.848064,318
1686190193.8639824,318
1686190193.8769867,318
1686190193.8889787,318
1686190193.9050324,318
1686190193.9170318,318
1686190193.9340014,319
1686190193.9460495,319
1686190193.9579794,318
1686190193.9750667,317
1686190193.9870656,317
1686190193.999487,318
1686190194.0160303,319
1686190194.0280063,319
1686190194.0400088,318
1686190194.0570042,316
1686190194.0690112,316
1686190194.084996,317
1686190194.097998,317
1686190194.1099975,317
1686190194.1259978,315
1686190194.139013,314
1686190194.1510587,314
1686190194.1676457,315
1686190194.179998,315
1686190194.192001,315
1686190194.2080126,314
1686190194.221003,314
1686190194.2330024,314
1686190194.2490692,315
1686190194.261998,315
1686190194.278005,316
1686190194.2900052,318
1686190194.3030124,321
1686190194.3190093,325
1686190194.3310642,331
1686190194.3430026,336
1686190194.360003,340
1686190194.3722835,343
1686190194.384286,347
1686190194.400291,351
1686190194.4132876,354
1686190194.4292848,355
1686190194.441284,355
1686190194.4542882,356
1686190194.470287,356
1686190194.4832878,356
1686190194.4952872,357
1686190194.5113502,355
1686190194.5232983,353
1686190194.536352,351
1686190194.552617,351
1686190194.5649269,350
1686190194.577014,349
1686190194.592961,346
1686190194.605949,343
1686190194.6219585,342
1686190194.6340175,342
1686190194.64702,342
1686190194.6629684,342
1686190194.675015,342
1686190194.6879559,341
1686190194.704016,341
1686190194.7159624,342
1686190194.7289698,342
1686190194.7450187,340
1686190194.7575352,337
1686190194.773424,332
1686190194.7854755,326
1686190194.7984343,319
1686190194.8144727,309
1686190194.8264735,297
1686190194.8394792,286
1686190194.8559265,277
1686190194.8677788,270
1686190194.8804913,266
1686190194.8964927,263
1686190194.9086914,261
1686190194.921489,260
1686190194.9375937,262
1686190194.9494867,265
1686190194.9661012,269
1686190194.978159,274
1686190194.9911017,277
1686190195.007149,280
1686190195.0190964,284
1686190195.0311456,288
1686190195.048148,292
1686190195.0601459,295
1686190195.072395,297
1686190195.0893989,299
1686190195.101451,302
1686190195.1174476,305
1686190195.1294634,308
1686190195.1424026,310
1686190195.158395,311
1686190195.1704528,313
1686190195.1834009,316
1686190195.199913,318
1686190195.2114484,320
1686190195.2244165,320
1686190195.240416,319
1686190195.25323,318
1686190195.2684126,317
1686190195.2814481,315
1686190195.2934515,312
1686190195.3104706,310
1686190195.3223958,309
1686190195.3353965,309
1686190195.3514142,311
1686190195.3634043,312
1686190195.3755317,313
1686190195.3925292,313
1686190195.4045343,314
1686190195.416539,315
1686190195.4335382,316
1686190195.4455311,316
1686190195.461529,315
1686190195.4736578,314
1686190195.4856634,313
1686190195.502659,313
1686190195.51487,313
1686190195.5266612,312
1686190195.543656,311
1686190195.555662,310
1686190195.5678997,309
1686190195.5846674,310
1686190195.5966597,311
1686190195.6127229,311
1686190195.6257167,311
1686190195.6376586,311
1686190195.6546617,311
1686190195.6666584,313
1686190195.6786613,314
1686190195.6946611,314
1686190195.7076716,314
1686190195.7196598,313
1686190195.73571,314
1686190195.7486591,315
1686190195.7606735,316
1686190195.7766593,315
1686190195.7896705,314
1686190195.8056624,313
1686190195.8179183,314
1686190195.830776,314
1686190195.8471878,314
1686190195.8587124,314
1686190195.8716571,314
1686190195.8882945,314
1686190195.8997355,315
1686190195.9117248,316
1686190195.9287157,316
1686190195.9407303,316
1686190195.9566648,315
1686190195.969663,316
1686190195.981668,317
1686190195.9987087,318
1686190196.0107248,318
1686190196.0227692,317
1686190196.0393984,316
1686190196.051403,317
1686190196.0634718,318
1686190196.080408,318
1686190196.092461,317
1686190196.1084723,317
1686190196.1216087,317
1686190196.1335483,318
1686190196.1497667,319
1686190196.161759,320
1686190196.1746178,319
1686190196.1906672,318
1686190196.202628,318
1686190196.2156067,319
1686190196.2316656,319
1686190196.2436657,319
1686190196.2566068,318
1686190196.2726917,318
1686190196.2846744,318
1686190196.301637,319
1686190196.3136668,320
1686190196.326608,319
1686190196.3426254,319
1686190196.3550282,319
1686190196.3666713,319
1686190196.3836136,320
1686190196.3956084,321
1686190196.407602,320
1686190196.424624,319
1686190196.4366858,319
1686190196.4526098,319
1686190196.4656243,320
1686190196.4776537,321
1686190196.4936678,320
1686190196.5066133,319
1686190196.518659,319
1686190196.5346694,320
1686190196.546674,320
1686190196.559607,320
1686190196.5759282,319
1686190196.588452,319
1686190196.6008587,319
1686190196.6169171,320
1686190196.6289191,321
1686190196.6458569,320
1686190196.6579123,319
1686190196.6698627,319
1686190196.686856,319
1686190196.6988623,320
1686190196.710922,320
1686190196.7269218,319
1686190196.7398648,319
1686190196.7519262,319
1686190196.768178,319
1686190196.7801754,320
1686190196.797112,320
1686190196.8097072,320
1686190196.8221154,319
1686190196.8381128,318
1686190196.8505127,319
1686190196.8621724,319
1686190196.8791199,319
1686190196.8913941,318
1686190196.903578,317
1686190196.920216,317
1686190196.932582,318
1686190196.9445796,319
1686190196.9605696,319
1686190196.9730601,318
1686190196.9891188,318
1686190197.0020528,318
1686190197.014143,319
1686190197.0302823,320
1686190197.043055,319
1686190197.0551102,318
1686190197.0712142,318
1686190197.0841627,319
1686190197.0961628,320
1686190197.11221,319
1686190197.1242101,319
1686190197.141161,318
1686190197.1532226,318
1686190197.1652236,319
1686190197.1821594,320
1686190197.1942132,320
1686190197.2063854,319
1686190197.223113,319
1686190197.2350662,319
1686190197.2472382,320
1686190197.264126,321
1686190197.2761302,320
1686190197.2920747,320
1686190197.3050678,319
1686190197.3170695,320
1686190197.3340685,320
1686190197.34607,320
1686190197.3580701,319
1686190197.3741283,319
1686190197.3870692,318
1686190197.399126,319
1686190197.4150825,320
1686190197.4281206,319
1686190197.440142,318
1686190197.4561253,317
1686190197.4691334,317
1686190197.4850707,318
1686190197.4970672,319
1686190197.5100899,318
1686190197.5260727,317
1686190197.5381277,317
1686190197.5510716,318
1686190197.5670693,319
1686190197.5794308,320
1686190197.5914874,319
1686190197.607422,318
1686190197.6204844,318
1686190197.6364214,319
1686190197.649415,320
1686190197.6614738,321
1686190197.6774898,320
1686190197.6904266,319
1686190197.7024837,319
1686190197.7184155,320
1686190197.7304347,321
1686190197.7434208,320
1686190197.7594688,319
1686190197.7718225,319
1686190197.7837813,319
1686190197.8008213,319
1686190197.8133564,320
1686190197.828819,320
1686190197.8417687,319
1686190197.853753,318
1686190197.8699515,318
1686190197.8829665,319
1686190197.8949525,320
1686190197.91097,319
1686190197.9237852,318
1686190197.935952,318
1686190197.9520383,318
1686190197.9642372,319
1686190197.9800093,320
1686190197.9932382,319
1686190198.005019,318
1686190198.0219514,318
1686190198.0340014,319
1686190198.0461338,319
1686190198.0629523,319
1686190198.0750265,319
1686190198.0870142,318
1686190198.1041186,318
1686190198.1160123,319
1686190198.13202,320
1686190198.1449878,319
1686190198.1573944,318
1686190198.1730216,317
1686190198.1850214,317
1686190198.1979504,318
1686190198.2139897,319
1686190198.2260892,318
1686190198.2389517,317
1686190198.2550628,317
1686190198.2670584,318
1686190198.2800605,318
1686190198.2963758,318
1686190198.3081605,317
1686190198.3250756,317
1686190198.3370733,317
1686190198.3491461,318
1686190198.3657482,319
1686190198.3775918,319
1686190198.390617,318
1686190198.4065902,317
1686190198.4195943,318
1686190198.431678,319
1686190198.448594,319
1686190198.45967,319
1686190198.4768212,318
1686190198.4888272,318
1686190198.500795,318
1686190198.5177305,319
1686190198.5298414,319
1686190198.5420482,318
1686190198.5577333,318
1686190198.5708995,318
1686190198.5825658,318
1686190198.5994174,319
1686190198.6118085,319
1686190198.6276734,318
1686190198.640783,318
1686190198.652825,317
1686190198.6685956,318
1686190198.6816566,319
1686190198.6938953,319
1686190198.7101364,318
1686190198.721896,318
1686190198.7348962,318
1686190198.75051,319
1686190198.7635584,319
1686190198.7759063,318
1686190198.7920187,317
1686190198.804062,316
1686190198.820839,316
1686190198.8326108,317
1686190198.8448796,318
1686190198.8619184,317
1686190198.8739505,317
1686190198.8859613,317
1686190198.901896,317
1686190198.9149232,318
1686190198.9274065,318
1686190198.9434524,317
1686190198.9562347,317
1686190198.9717517,317
1686190198.9843154,318
1686190198.9967337,319
1686190199.0131915,319
1686190199.0249314,318
1686190199.0378962,317
1686190199.0539339,317
1686190199.066873,318
1686190199.0786765,318
1686190199.0943284,317
1686190199.1074905,317
1686190199.119936,316
1686190199.1358943,317
1686190199.148672,318
1686190199.1648269,318
1686190199.1764667,318
1686190199.1886432,317
1686190199.20549,316
1686190199.2179654,317
1686190199.2295742,318
1686190199.2465901,318
1686190199.2585692,317
1686190199.271136,316
1686190199.2873268,317
1686190199.2993262,318
1686190199.3163269,318
1686190199.3288808,318
1686190199.3402874,317
1686190199.357237,317
1686190199.3697827,317
1686190199.3817284,318
1686190199.3979208,318
1686190199.4107606,317
1686190199.4229283,316
1686190199.4394314,316
1686190199.4515324,316
1686190199.4675765,317
1686190199.4802496,317
1686190199.4924576,316
1686190199.5088098,315
1686190199.521004,315
1686190199.5333035,316
1686190199.5493147,316
1686190199.5613523,316
1686190199.5742972,315
1686190199.590785,315
1686190199.6025019,317
1686190199.614505,321
1686190199.6319568,326
1686190199.6440392,333
1686190199.6608,339
1686190199.6718936,344
1686190199.684932,349
1686190199.7014573,353
1686190199.7136955,356
1686190199.7260716,354
1686190199.7419693,350
1686190199.7544036,344
1686190199.766571,337
1686190199.7834442,329
1686190199.7955556,321
1686190199.8118489,314
1686190199.8241715,308
1686190199.8359325,305
1686190199.8527484,303
1686190199.8654308,303
1686190199.8768363,303
1686190199.8939373,302
1686190199.9060283,302
1686190199.9188247,303
1686190199.934185,304
1686190199.9471076,305
1686190199.9593792,306
1686190199.975855,306
1686190199.987758,306
1686190200.0042698,307
1686190200.0162995,308
1686190200.0283008,309
1686190200.0453584,308
1686190200.0575876,308
1686190200.0696468,308
1686190200.085876,308
1686190200.0986683,309
1686190200.1108813,310
1686190200.1282878,309
1686190200.1393893,309
1686190200.1553416,310
1686190200.1684592,311
1686190200.1807666,312
1686190200.1968462,312
1686190200.2089837,312
1686190200.2217743,312
1686190200.2380214,312
1686190200.2499712,313
1686190200.2620609,314
1686190200.2789378,314
1686190200.2911398,313
1686190200.3069947,312
1686190200.319295,313
1686190200.3316886,314
1686190200.3479326,314
1686190200.3609273,313
1686190200.3730958,312
1686190200.3889508,312
1686190200.4018607,312
1686190200.4134715,313
1686190200.430704,313
1686190200.4427016,312
1686190200.4550047,311
1686190200.4713655,310
1686190200.483947,311
1686190200.4994943,311
1686190200.512589,311
1686190200.524503,309
1686190200.5408456,308
1686190200.552831,308
1686190200.5656483,308
1686190200.5819283,308
1686190200.5938666,307
1686190200.6067066,305
1686190200.6228902,304
1686190200.6351538,304
1686190200.6517637,304
1686190200.6638143,304
1686190200.6758037,303
1686190200.6928036,301
1686190200.7049022,301
1686190200.7168887,301
1686190200.733113,302
1686190200.7459235,302
1686190200.7572396,301
1686190200.7742333,300
1686190200.7869208,300
1686190200.7982993,301
1686190200.8150601,301
1686190200.827155,301
1686190200.8441036,300
1686190200.8559964,299
1686190200.8688374,299
1686190200.8849962,300
1686190200.8969538,301
1686190200.9098837,300
1686190200.926086,299
1686190200.9383478,299
1686190200.9505448,300
1686190200.9668574,301
1686190200.9788828,302
1686190200.9955356,301
1686190201.0074854,300
1686190201.0209398,301
1686190201.0359228,301
1686190201.048902,303
1686190201.0609002,303
1686190201.0771601,302
1686190201.0892205,301
1686190201.102019,301
1686190201.1178827,301
1686190201.1314135,301
1686190201.1463785,301
1686190201.159712,301
1686190201.1715498,301
1686190201.1877499,302
1686190201.200356,304
1686190201.2126331,306
1686190201.228684,306
1686190201.2407124,306
1686190201.2537029,306
1686190201.2696986,307
1686190201.281738,309
1686190201.2946954,310
1686190201.3104756,310
1686190201.3225076,309
1686190201.3395114,309
1686190201.351509,310
1686190201.3635757,311
1686190201.380509,311
1686190201.3925138,311
1686190201.4045095,311
1686190201.4215083,312
1686190201.4335535,313
1686190201.4455638,314
1686190201.4625115,314
1686190201.474579,314
1686190201.4905767,314
1686190201.5035133,314
1686190201.5150244,315
1686190201.5322707,316
1686190201.5440593,316
1686190201.5565324,316
1686190201.5726135,316
1686190201.5851657,317
1686190201.5971372,319
1686190201.6135194,319
1686190201.6255682,319
1686190201.6387706,319
1686190201.6547709,320
1686190201.6668298,321
1686190201.683085,322
1686190201.6960604,322
1686190201.7080274,322
1686190201.724027,322
1686190201.7365716,322
1686190201.7486072,323
1686190201.765542,324
1686190201.7780359,325
1686190201.7900648,324
1686190201.8063457,324
1686190201.81834,325
1686190201.8343425,326
1686190201.847282,327
1686190201.8593426,327
1686190201.8762968,326
1686190201.8885467,327
1686190201.900543,328
1686190201.9166253,329
1686190201.9286258,330
1686190201.9416244,329
1686190201.9576788,329
1686190201.9704735,329
1686190201.9824731,329
1686190201.9991703,330
1686190202.011166,330
1686190202.0275056,329
1686190202.0395217,329
1686190202.0525086,329
1686190202.0685592,329
1686190202.0805073,329
1686190202.092861,328
1686190202.109907,327
1686190202.121883,327
1686190202.1339197,327
1686190202.1498587,328
1686190202.1627493,328
1686190202.1785798,328
1686190202.1911912,327
1686190202.2032106,327
1686190202.2201953,328
1686190202.232196,329
1686190202.2441964,329
1686190202.261197,328
1686190202.273195,328
1686190202.285368,328
1686190202.3013694,329
1686190202.3145552,329
1686190202.3303742,329
1686190202.3430016,329
1686190202.3549998,328
1686190202.371083,328
1686190202.3840039,329
1686190202.3960693,330
1686190202.4119976,329
1686190202.424251,328
1686190202.4373152,328
1686190202.4534552,328
1686190202.465158,329
1686190202.47816,329
1686190202.4943209,328
1686190202.506341,327
1686190202.5232887,327
1686190202.5353036,327
1686190202.5472863,328
1686190202.564281,328
1686190202.5762782,327
1686190202.5885582,325
1686190202.6044576,325
1686190202.6174884,326
1686190202.629457,326
1686190202.645543,326
1686190202.6584942,325
1686190202.6747165,324
1686190202.686453,324
1686190202.6994011,324
1686190202.7154067,325
1686190202.7274654,324
1686190202.7401578,323
1686190202.7562263,323
1686190202.7691655,323
1686190202.7811666,324
1686190202.7969697,324
1686190202.8096006,323
1686190202.8224406,323
1686190202.8382514,322
1686190202.8503518,324
1686190202.867306,324
1686190202.878872,325
1686190202.8918824,324
1686190202.908437,323
1686190202.9204295,323
1686190202.9325123,325
1686190202.9494505,325
1686190202.9613347,325
1686190202.9733348,324
1686190202.9897306,324
1686190203.0026793,324
1686190203.0188317,325
1686190203.0306776,326
1686190203.0425937,325
1686190203.0597591,324
1686190203.0718274,324
1686190203.0838273,325
1686190203.101031,325
1686190203.1131382,326
1686190203.1248167,325
1686190203.141765,324
1686190203.153757,324
1686190203.1698148,324
1686190203.1819608,325
1686190203.194976,325
1686190203.2109642,324
1686190203.222982,324
1686190203.2360377,324
1686190203.2520266,325
1686190203.2640226,325
1686190203.2769828,325
1686190203.2935152,324
1686190203.3051794,323
1686190203.3171828,323
1686190203.3341424,324
1686190203.3461254,325
1686190203.362184,324
1686190203.3751369,324
1686190203.3875005,323
1686190203.4031672,323
1686190203.4161327,324
1686190203.4283674,324
1686190203.4442556,323
1686190203.4572592,323
1686190203.4692523,323
1686190203.4854727,324
1686190203.49759,324
1686190203.5139186,324
1686190203.5265932,323
1686190203.5386474,323
1686190203.5556538,323
1686190203.567583,324
1686190203.5795894,324
1686190203.596596,323
1686190203.6085873,322
1686190203.6206455,322
1686190203.6365852,322
1686190203.6496468,323
1686190203.6621628,323
1686190203.6783519,322
1686190203.6902874,322
1686190203.7063613,322
1686190203.7185066,322
1686190203.7314754,322
1686190203.7474895,322
1686190203.760477,322
1686190203.7724721,321
1686190203.7885382,320
1686190203.8005352,321
1686190203.8134716,322
1686190203.8296516,321
1686190203.8416104,321
1686190203.857621,320
1686190203.8706596,320
1686190203.882672,321
1686190203.8996146,321
1686190203.911621,321
1686190203.923676,320
1686190203.939608,320
1686190203.9526057,320
1686190203.9648454,321
1686190203.9809465,321
1686190203.9936116,320
1686190204.0096774,319
1686190204.0226111,319
1686190204.0346136,320
1686190204.0505402,321
1686190204.0633903,321
1686190204.0753894,320
1686190204.0913892,319
1686190204.103598,319
1686190204.1164405,320
1686190204.1324532,320
1686190204.1443908,320
1686190204.157397,319
1686190204.1735346,318
1686190204.1855457,319
1686190204.2017884,319
1686190204.214799,320
1686190204.2267272,319
1686190204.242768,318
1686190204.255734,317
1686190204.2679455,318
1686190204.283785,319
1686190204.2969222,319
1686190204.3088021,319
1686190204.3247373,318
1686190204.3377287,318
1686190204.3538013,319
1686190204.3662696,320
1686190204.377771,320
1686190204.394843,319
1686190204.406839,318
1686190204.4197347,319
1686190204.4362195,319
1686190204.4481735,320
1686190204.4605122,320
1686190204.476469,319
1686190204.4891036,318
1686190204.5015826,319
1686190204.5173235,319
1686190204.5301113,320
1686190204.5458992,319
1686190204.5589554,318
1686190204.5710547,317
1686190204.5869124,318
1686190204.5999665,319
1686190204.6121366,319
1686190204.628704,318
1686190204.6403913,318
1686190204.653468,318
1686190204.6698732,318
1686190204.6818376,319
1686190204.6979728,319
1686190204.7103174,318
1686190204.7223313,318
1686190204.738795,317
1686190204.7508037,318
1686190204.7638667,318
1686190204.7797992,318
1686190204.7921262,317
1686190204.8047996,316
1686190204.8211303,317
1686190204.8331301,318
1686190204.848797,318
1686190204.8619463,318
1686190204.8738506,317
1686190204.8908544,317
1686190204.9028225,317
1686190204.915118,318
1686190204.9317956,319
1686190204.9437892,318
1686190204.9564843,317
1686190204.9728715,317
1686190204.9848106,318
1686190204.997325,319
1686190205.0135853,318
1686190205.0253742,318
1686190205.0419524,317
1686190205.0546565,317
1686190205.0667012,318
1686190205.0833151,318
1686190205.0953603,318
1686190205.1076698,317
1686190205.1233108,316
1686190205.1365228,317
1686190205.148628,318
1686190205.1653826,318
1686190205.1773016,318
1686190205.193633,317
1686190205.2063086,317
1686190205.218351,317
1686190205.234354,318
1686190205.2463543,318
1686190205.259291,317
1686190205.275797,316
1686190205.2875998,316
1686190205.3003683,317
1686190205.3162925,318
1686190205.3292933,318
1686190205.3453963,317
1686190205.3573508,316
1686190205.3696694,316
1686190205.3863108,317
1686190205.3983839,317
1686190205.411831,317
1686190205.4270308,316
1686190205.4393456,316
1686190205.4520998,316
1686190205.4680858,317
1686190205.480044,318
1686190205.4930003,317
1686190205.5087094,316
1686190205.5217323,316
1686190205.537982,316
1686190205.5500371,317
1686190205.5620854,316
1686190205.5790427,316
1686190205.5910153,314
1686190205.6033883,314
1686190205.6193764,315
1686190205.6320865,315
1686190205.6440065,315
1686190205.6603897,314
1686190205.6730716,313
1686190205.6892757,313
1686190205.7019773,314
1686190205.7139852,315
1686190205.729907,314
1686190205.742275,314
1686190205.7549813,314
1686190205.770923,316
1686190205.7839196,319
1686190205.7961721,320
1686190205.811979,321
1686190205.8239143,323
1686190205.836902,326
1686190205.8529673,329
1686190205.864916,333
1686190205.881988,337
1686190205.8939726,340
1686190205.9062433,343
1686190205.9229012,346
1686190205.9349003,349
1686190205.9469602,351
1686190205.9634278,352
1686190205.9760332,352
1686190205.9882443,352
1686190206.0047638,351
1686190206.0168266,351
1686190206.0334814,350
1686190206.045432,349
1686190206.057426,347
1686190206.0744104,346
1686190206.0864103,346
1686190206.0994062,346
1686190206.1154108,346
1686190206.1284153,345
1686190206.1396859,344
1686190206.1564748,344
1686190206.1689456,344
1686190206.180712,344
1686190206.1974747,344
1686190206.2096179,343
1686190206.2260854,342
1686190206.23837,342
1686190206.250476,343
1686190206.2666898,342
1686190206.2793844,342
1686190206.2913826,339
1686190206.308593,336
1686190206.3203661,334
1686190206.332649,331
1686190206.3482447,328
1686190206.3611712,325
1686190206.377471,319
1686190206.390122,314
1686190206.4021795,308
1686190206.4181242,301
1686190206.4301484,294
1686190206.4431965,287
1686190206.4592087,279
1686190206.4714458,274
1686190206.484129,270
1686190206.5003824,267
1686190206.512127,265
1686190206.5281222,262
1686190206.5412588,262
1686190206.553467,262
1686190206.5701408,264
1686190206.5821345,268
1686190206.5944664,270
1686190206.6112094,272
1686190206.6231682,275
1686190206.635441,279
1686190206.652139,283
1686190206.664442,287
1686190206.676126,290
1686190206.6931922,292
1686190206.7049766,295
1686190206.721171,299
1686190206.7341764,303
1686190206.7463868,305
1686190206.7621467,307
1686190206.7743578,309
1686190206.7871976,310
1686190206.803184,313
1686190206.815164,315
1686190206.8281708,315
1686190206.8444462,315
1686190206.8561,315
1686190206.8731768,314
1686190206.8851607,314
1686190206.8978012,313
1686190206.9140258,312
1686190206.9262743,311
1686190206.9387317,311
1686190206.9546518,312
1686190206.9673445,314
1686190206.9795895,315
1686190206.9963105,315
1686190207.0083263,315
1686190207.0203264,315
1686190207.036986,315
1686190207.0490007,315
1686190207.0653603,314
1686190207.0780153,314
1686190207.0901113,313
1686190207.1063411,313
1686190207.1190534,313
1686190207.1310909,314
1686190207.1469898,314
1686190207.159087,314
1686190207.1721263,314
1686190207.1882126,314
1686190207.2009642,316
1686190207.2171447,317
1686190207.2299397,317
1686190207.2418098,317
1686190207.257874,317
1686190207.2701256,318
1686190207.2828875,319
1686190207.2987187,319
1686190207.3113801,318
1686190207.3233528,317
1686190207.339363,317
1686190207.3524363,318
1686190207.3683589,318
1686190207.3803601,318
1686190207.3934293,317
1686190207.4097075,317
1686190207.4216797,317
1686190207.4343686,318
1686190207.4507186,318
1686190207.462979,318
1686190207.4754248,317
1686190207.4917052,317
1686190207.5033576,318
1686190207.516377,319
1686190207.5325708,319
1686190207.5443792,319
1686190207.5613606,318
1686190207.5733533,318
1686190207.585679,319
1686190207.602325,319
1686190207.6142728,320
1686190207.6266143,319
1686190207.643257,318
1686190207.655261,319
1686190207.6673148,319
1686190207.6843297,320
1686190207.6965694,320
1686190207.7123208,319
1686190207.7252557,318
1686190207.7373562,318
1686190207.7536075,319
1686190207.7659433,319
1686190207.7782903,319
1686190207.7942646,318
1686190207.806568,317
1686190207.8193471,317
1686190207.8352664,318
1686190207.8478782,318
1686190207.8603268,318
1686190207.8766003,317
1686190207.8882253,317
1686190207.9053068,318
1686190207.91757,318
1686190207.9292393,319
1686190207.9464397,318
1686190207.9583008,317
1686190207.9702282,317
1686190207.9873111,318
1686190207.9992318,319
1686190208.0112488,319
1686190208.028226,318
1686190208.0402398,317
1686190208.056581,317
1686190208.0692825,318
1686190208.0812836,319
1686190208.0972853,318
1686190208.110228,317
1686190208.122362,316
1686190208.1385667,317
1686190208.151303,317
1686190208.1632948,318
1686190208.179248,317
1686190208.1916156,316
1686190208.2082756,316
1686190208.2210186,317
1686190208.232949,317
1686190208.2493122,317
1686190208.261045,316
1686190208.2740228,316
1686190208.290023,316
1686190208.302256,317
1686190208.3150194,318
1686190208.3311467,317
1686190208.3432388,316
1686190208.3559506,316
1686190208.3722107,316
1686190208.3842967,317
1686190208.4001944,317
1686190208.413206,316
1686190208.4256856,315
1686190208.4416068,314
1686190208.4539287,315
1686190208.4666584,316
1686190208.4825804,316
1686190208.4946058,316
1686190208.5067096,315
1686190208.5239098,315
1686190208.535905,316
1686190208.5515964,317
1686190208.5646033,317
1686190208.5765998,316
1686190208.5935829,315
1686190208.6056597,316
1686190208.618375,317
1686190208.6343052,317
1686190208.6463785,317
1686190208.6586196,315
1686190208.6753798,315
1686190208.6873214,316
1686190208.7036755,317
1686190208.716359,318
1686190208.7282963,317
1686190208.744281,316
1686190208.7573574,316
1686190208.7692842,317
1686190208.7856061,318
1686190208.7980838,318
1686190208.8102007,318
1686190208.8271484,317
1686190208.839215,317
1686190208.8514712,318
1686190208.8674395,319
1686190208.8801336,318
1686190208.8961816,317
1686190208.9084742,317
1686190208.9211292,317
1686190208.9378924,318
1686190208.9494812,318
1686190208.9621933,318
1686190208.9784808,316
1686190208.990437,316
1686190209.003128,316
1686190209.0192547,317
1686190209.031119,317
1686190209.0482,316
1686190209.06014,316
1686190209.0724788,316
1686190209.0891945,317
1686190209.1016827,318
1686190209.1136777,317
1686190209.1299055,317
1686190209.141985,316
1686190209.1546607,316
1686190209.1708748,317
1686190209.1829836,318
1686190209.1947243,318
1686190209.211762,318
1686190209.223897,317
1686190209.2405784,318
1686190209.2525666,319
1686190209.2648842,319
1686190209.2816465,319
1686190209.293578,318
1686190209.3060436,318
1686190209.3223386,319
1686190209.334031,319
1686190209.346995,320
1686190209.3633373,319
1686190209.3749807,319
1686190209.3919754,319
1686190209.4043336,320
1686190209.4163454,321
1686190209.4329724,321
1686190209.4453225,320
1686190209.4573538,320
1686190209.4740474,320
1686190209.4862747,321
1686190209.4990253,321
1686190209.514929,321
1686190209.5268626,320
1686190209.5391836,319
1686190209.555737,320
1686190209.5674775,321
1686190209.5845363,321
1686190209.5967855,320
1686190209.6087906,319
1686190209.6255507,319
1686190209.6374824,319
1686190209.6498163,320
1686190209.6664815,320
1686190209.6785104,319
1686190209.69062,319
1686190209.7076852,319
1686190209.719525,320
1686190209.7358146,321
1686190209.7485228,321
1686190209.7604868,320
1686190209.7765207,320
1686190209.7885132,320
1686190209.8015127,321
1686190209.817513,322
1686190209.830444,321
1686190209.842104,320
1686190209.8590202,320
1686190209.8713133,320
1686190209.8870628,321
1686190209.900038,322
1686190209.9120219,321
1686190209.9281945,320
1686190209.9409611,320
1686190209.9532204,321
1686190209.9693377,321
1686190209.9820406,321
1686190209.9943159,320
1686190210.009959,319
1686190210.0229664,319
1686190210.0351508,319
1686190210.0513978,320
1686190210.0637388,320
1686190210.0797052,319
1686190210.0924597,318
1686190210.1043909,318
1686190210.1207564,319
1686190210.1333914,319
1686190210.145469,319
1686190210.1614528,318
1686190210.1744623,318
1686190210.186438,318
1686190210.2029614,319
1686190210.214926,319
1686190210.2316744,318
1686190210.2440443,317
1686190210.256297,317
1686190210.2719946,318
1686190210.2849698,319
1686190210.2975185,319
1686190210.3129253,318
1686190210.3258793,318
1686190210.337867,318
1686190210.3548918,319
1686190210.3665566,320
1686190210.3793669,320
1686190210.3956604,319
1686190210.4079895,318
1686190210.4239283,318
1686190210.4368258,319
1686190210.4489815,320
1686190210.4655092,319
1686190210.4771168,318
1686190210.4901092,318
1686190210.506128,318
1686190210.5181715,319
1686190210.530826,319
1686190210.5471613,318
1686190210.5594106,318
1686190210.5750782,317
1686190210.5880368,318
1686190210.599873,319
1686190210.6161373,319
1686190210.629075,318
1686190210.6410687,318
1686190210.6570659,318
1686190210.6700664,319
1686190210.6824343,320
1686190210.6981304,320
1686190210.7109766,319
1686190210.7270265,319
1686190210.7389796,320
1686190210.7519712,320
1686190210.7680311,321
1686190210.7800288,320
1686190210.7920306,319
1686190210.8090568,319
1686190210.8210897,320
1686190210.8331811,320
1686190210.8501394,320
1686190210.8624768,320
1686190210.874266,319
1686190210.8909357,319
1686190210.9029126,320
1686190210.918977,320
1686190210.931941,320
1686190210.944447,319
1686190210.9609618,318
1686190210.9738176,318
1686190210.985514,319
1686190211.001784,319
1686190211.0140681,319
1686190211.0259407,317
1686190211.0424423,317
1686190211.0550323,317
1686190211.0709858,318
1686190211.083573,318
1686190211.0960004,318
1686190211.1125762,317
1686190211.1246321,316
1686190211.137025,317
1686190211.1530106,318
1686190211.1657922,318
1686190211.1777494,317
1686190211.1938288,315
1686190211.2058814,315
1686190211.2189345,316
1686190211.2355406,317
1686190211.2477381,319
1686190211.2638476,322
1686190211.2758431,326
1686190211.2880695,334
1686190211.3049958,341
1686190211.3170905,347
1686190211.3296473,351
1686190211.3458164,352
1686190211.3578646,352
1686190211.3706896,349
1686190211.386893,344
1686190211.3989909,337
1686190211.414976,329
1686190211.428121,321
1686190211.4400055,315
1686190211.4560478,311
1686190211.467952,309
1686190211.4809554,306
1686190211.4973834,304
1686190211.5093076,302
1686190211.521927,302
1686190211.5379138,303
1686190211.5507357,304
1686190211.5670702,305
1686190211.579269,305
1686190211.5908809,305
1686190211.607895,306
1686190211.6204746,308
1686190211.6321728,309
1686190211.6482165,309
1686190211.6612163,309
1686190211.673765,310
1686190211.68984,310
1686190211.7017484,312
1686190211.7137806,313
1686190211.7307894,313
1686190211.7431517,312
1686190211.7594934,313
1686190211.7713876,314
1686190211.784033,315
1686190211.8007429,315
1686190211.8127546,314
1686190211.825187,314
1686190211.8417158,314
1686190211.8537917,315
1686190211.8663266,316
1686190211.8816917,315
1686190211.8949783,315
1686190211.9108655,315
1686190211.9229844,316
1686190211.9349847,317
1686190211.9520743,317
1686190211.9644213,316
1686190211.9766715,315
1686190211.9930735,315
1686190212.005664,316
1686190212.017171,317
1686190212.0339658,317
1686190212.0455658,316
1686190212.0619931,316
1686190212.0749242,316
1686190212.0873926,317
1686190212.103559,318
1686190212.1159997,318
1686190212.1279974,317
1686190212.1440957,317
1686190212.1561587,317
1686190212.1690958,318
1686190212.1856992,319
1686190212.197814,319
1686190212.2098076,319
1686190212.2259643,318
1686190212.2388902,319
1686190212.2549458,320
1686190212.2669997,320
1686190212.2789936,320
1686190212.2954216,319
1686190212.3087785,319
1686190212.3198776,319
1686190212.3369522,320
1686190212.349312,320
1686190212.3617983,319
1686190212.3776293,318
1686190212.3903148,318
1686190212.4068897,319
1686190212.4189801,319
1686190212.4309282,319
1686190212.4478006,317
1686190212.4594657,316
1686190212.4721167,316
1686190212.4887767,317
1686190212.5007856,317
1686190212.5126603,317
1686190212.5291471,316
1686190212.5416133,316
1686190212.5541542,317
1686190212.5706778,317
1686190212.5819468,318
1686190212.5986753,317
1686190212.6106744,317
1686190212.624042,317
1686190212.6402214,318
1686190212.651925,319
1686190212.663962,319
1686190212.6809673,318
1686190212.6933699,318
1686190212.705886,318
1686190212.7215223,318
1686190212.7342713,319
1686190212.7503252,319
1686190212.7622716,318
1686190212.7752705,318
1686190212.791144,318
1686190212.8043404,319
1686190212.8157628,320
1686190212.8320622,319
1686190212.844856,318
1686190212.8570051,318
1686190212.873019,318
1686190212.8850172,320
1686190212.9010162,320
1686190212.9136858,319
1686190212.9269788,319
1686190212.9438753,319
1686190212.9557228,320
1686190212.967786,321
1686190212.984155,321
1686190212.996325,320
1686190213.0083616,319
1686190213.0249677,320
1686190213.0367243,321
1686190213.0495367,321
1686190213.066233,321
1686190213.0781605,320
1686190213.093967,319
1686190213.107078,319
1686190213.1191597,320
1686190213.1359003,320
1686190213.1479094,319
1686190213.1597147,318
1686190213.1767366,318
1686190213.1888576,318
1686190213.2004075,319
1686190213.2176363,319
1686190213.229585,319
1686190213.2459466,318
1686190213.2578762,318
1686190213.2710407,319
1686190213.2869964,320
1686190213.2989974,320
1686190213.3117816,319
1686190213.3280215,318
1686190213.340654,319
1686190213.3529696,320
1686190213.3688717,320
1686190213.3817048,320
1686190213.3936725,319
1686190213.410151,318
1686190213.4226453,319
1686190213.4388452,319
1686190213.4510896,320
1686190213.4628565,319
1686190213.479078,318
1686190213.4920948,317
1686190213.505115,317
1686190213.5206964,318
1686190213.5323644,318
1686190213.545532,317
1686190213.561666,316
1686190213.5740533,316
1686190213.5898745,317
1686190213.6022575,318
1686190213.614952,318
1686190213.630618,317
1686190213.6437335,316
1686190213.655852,316
1686190213.6717675,317
1686190213.6848822,318
1686190213.6960099,318
1686190213.7127948,317
1686190213.7254696,317
1686190213.7408519,317
1686190213.7540114,318
1686190213.766603,319
1686190213.7828925,318
1686190213.794926,317
1686190213.8073459,317
1686190213.8234525,317
1686190213.836133,318
1686190213.8478186,318
1686190213.864898,317
1686190213.8769197,316
1686190213.889199,316
1686190213.9058752,317
1686190213.917982,318
1686190213.933554,317
1686190213.9467986,316
1686190213.9587708,316
1686190213.9751887,317
1686190213.9876688,318
1686190213.9998894,318
1686190214.015982,318
1686190214.028754,317
1686190214.0406756,316
1686190214.0573885,317
1686190214.0695946,318
1686190214.0852757,319
1686190214.0979419,318
1686190214.1104586,317
1686190214.1265159,317
1686190214.1394722,318
1686190214.1517076,319
1686190214.1677535,319
1686190214.179748,318
1686190214.1920676,317
1686190214.2082899,317
1686190214.220482,318
1686190214.2336895,319
1686190214.2498434,319
1686190214.261434,318
1686190214.278454,318
1686190214.2905564,318
1686190214.3029852,319
1686190214.3190422,319
1686190214.3317857,318
1686190214.3438575,318
1686190214.3598292,317
1686190214.3725998,318
1686190214.38481,319
1686190214.4009037,319
1686190214.414216,318
1686190214.42993,317
1686190214.4420793,317
1686190214.4545984,317
1686190214.4710517,318
1686190214.4830577,317
1686190214.49576,316
1686190214.5119152,315
1686190214.5238974,315
1686190214.535978,316
1686190214.5528886,317
1686190214.5652995,318
1686190214.5817337,317
1686190214.5940816,317
1686190214.6058795,318
1686190214.622677,320
1686190214.6346788,320
1686190214.6475894,320
1686190214.6629415,319
1686190214.675614,319
1686190214.6876078,319
1686190214.7047067,320
1686190214.7167983,320
1686190214.7290092,319
1686190214.7450078,318
1686190214.757963,318
1686190214.7736666,319
1686190214.7859998,319
1686190214.7980192,319
1686190214.81507,318
1686190214.8272343,317
1686190214.838898,317
1686190214.855381,318
1686190214.8674302,319
1686190214.880001,318
1686190214.8969593,317
1686190214.908868,317
1686190214.9249265,317
1686190214.937891,318
1686190214.9498777,318
1686190214.966242,317
1686190214.9789896,317
1686190214.9914184,317
1686190215.0069466,318
1686190215.0190346,318
1686190215.0319984,319
1686190215.0487664,318
1686190215.0606475,317
1686190215.0730414,316
1686190215.0902507,317
1686190215.1010468,318
1686190215.1179423,317
1686190215.1306782,317
1686190215.1427133,316
1686190215.158945,317
1686190215.1709492,318
1686190215.183924,318
1686190215.200333,318
1686190215.2124915,317
1686190215.2247467,317
1686190215.240931,317
1686190215.2529275,318
1686190215.2698789,319
1686190215.2818625,318
1686190215.2945204,317
1686190215.3103147,317
1686190215.3228402,318
1686190215.3354707,318
1686190215.3516579,318
1686190215.3631794,317
1686190215.3761632,316
1686190215.392162,316
1686190215.4042368,317
1686190215.4211195,318
1686190215.4328072,318
1686190215.445742,318
1686190215.4618661,317
1686190215.4745157,318
1686190215.4867754,318
1686190215.503118,319
1686190215.515062,319
1686190215.5273952,318
1686190215.544024,318
1686190215.5566587,319
1686190215.5686622,319
1686190215.5849934,320
1686190215.5970037,319
1686190215.6137948,318
1686190215.6259513,318
1686190215.6377897,319
1686190215.6547003,320
1686190215.666984,320
1686190215.6793377,319
1686190215.6949475,318
1686190215.7077868,318
1686190215.7201662,319
1686190215.735877,320
1686190215.749317,319
1686190215.764847,318
1686190215.7772841,317
1686190215.7898252,317
1686190215.8060489,318
1686190215.8186414,319
1686190215.830636,318
1686190215.8473642,318
1686190215.859583,317
1686190215.8714054,318
1686190215.8874578,319
1686190215.9004219,319
1686190215.912407,318
1686190215.9287782,317
1686190215.9409826,317
1686190215.9574258,318
1686190215.970184,319
1686190215.982525,319
1686190215.9989588,318
1686190216.0109563,317
1686190216.0229383,317
1686190216.0391295,318
1686190216.0519884,318
1686190216.0644498,318
1686190216.0805824,316
1686190216.0926142,316
1686190216.1092815,316
1686190216.1214733,317
1686190216.1338649,318
1686190216.149947,317
1686190216.162838,316
1686190216.1749027,316
1686190216.1908505,316
1686190216.2032886,317
1686190216.2158365,317
1686190216.231816,316
1686190216.244755,315
1686190216.2600284,315
1686190216.2728784,315
1686190216.284987,316
1686190216.3009691,316
1686190216.3140476,315
1686190216.3258147,315
1686190216.3425984,315
1686190216.3549612,316
1686190216.3670084,317
1686190216.3836927,316
1686190216.3959556,314
1686190216.4078548,313
1686190216.4248588,313
1686190216.436789,314
1686190216.4530547,315
1686190216.4647925,314
1686190216.4777935,313
1686190216.4937994,313
1686190216.5067477,314
1686190216.5188084,315
1686190216.5349925,315
1686190216.546748,315
1686190216.5597289,314
1686190216.5760548,314
1686190216.5878167,315
1686190216.604747,316
1686190216.6170726,316
1686190216.6296098,315
1686190216.6457567,314
1686190216.6579266,315
1686190216.6700625,316
1686190216.6867838,317
1686190216.6987846,317
1686190216.7108052,315
1686190216.7278984,315
1686190216.7399147,316
1686190216.7559004,317
1686190216.768904,317
1686190216.7809157,316
1686190216.7972155,315
1686190216.809893,315
1686190216.8220415,316
1686190216.8388925,317
1686190216.8499608,317
1686190216.862912,316
1686190216.878951,316
1686190216.891894,316
1686190216.9039047,317
1686190216.9202082,317
1686190216.932966,317
1686190216.9488997,316
1686190216.9611263,315
1686190216.973235,316
1686190216.9900303,317
1686190217.0022655,317
1686190217.0138938,317
1686190217.030903,316
1686190217.043081,316
1686190217.0549629,316
1686190217.0718925,317
1686190217.0840588,317
1686190217.1002786,316
1686190217.1129441,314
1686190217.1249611,315
1686190217.141247,315
1686190217.15402,316
1686190217.1659665,315
1686190217.181965,314
1686190217.1942704,313
1686190217.2069569,314
1686190217.2232888,314
1686190217.2353344,315
1686190217.2481117,315
1686190217.2640488,315
1686190217.276103,317
1686190217.29257,320
1686190217.3053107,323
1686190217.3181982,327
1686190217.3343015,330
1686190217.346192,334
1686190217.35851,337
1686190217.375201,342
1686190217.3872204,347
1686190217.3991976,350
1686190217.415548,351
1686190217.4282053,353
1686190217.4442012,355
1686190217.4564614,357
1686190217.4691832,358
1686190217.4855182,358
1686190217.4981802,358
1686190217.5102432,357
1686190217.5260942,356
1686190217.5388079,356
1686190217.5507765,355
1686190217.5667684,353
1686190217.5798318,352
1686190217.5957778,350
1686190217.6080983,350
1686190217.6208353,349
1686190217.6367204,348
1686190217.6490235,346
1686190217.6610224,344
1686190217.6777353,342
1686190217.690037,341
1686190217.7024949,340
1686190217.7189257,339
1686190217.7313247,337
1686190217.7437713,335
1686190217.7596292,333
1686190217.7723136,332
1686190217.7885065,329
1686190217.8003721,324
1686190217.8133368,317
1686190217.8293328,310
1686190217.8416939,302
1686190217.8536937,295
1686190217.870386,287
1686190217.8823216,280
1686190217.8953285,273
1686190217.9113045,267
1686190217.9233036,264
1686190217.9395516,263
1686190217.9525337,263
1686190217.9645185,262
1686190217.9808676,262
1686190217.9925342,264
1686190218.0055382,268
1686190218.021807,271
1686190218.0338671,273
1686190218.0462303,276
1686190218.0630138,278
1686190218.075184,282
1686190218.0908525,286
1686190218.1038928,290
1686190218.1158519,293
1686190218.1318502,296
1686190218.145104,299
1686190218.1574247,302
1686190218.1735916,306
1686190218.1855204,310
1686190218.1975784,312
1686190218.2145598,314
1686190218.2267473,316
1686190218.2387745,318
1686190218.2546835,320
1686190218.2677104,322
1686190218.2837522,321
1686190218.29563,320
1686190218.3088558,319
1686190218.3249717,319
1686190218.3376837,319
1686190218.349638,319
1686190218.3658962,317
1686190218.3778722,317
1686190218.3905413,317
1686190218.406977,318
1686190218.4186058,318
1686190218.4355562,318
1686190218.4478602,317
1686190218.4598956,316
1686190218.4765427,317
1686190218.4885423,318
1686190218.500858,319
1686190218.5175538,318
1686190218.529551,317
1686190218.5415714,317
1686190218.5586164,318
1686190218.5705495,319
1686190218.58287,319
1686190218.599716,319
1686190218.6117258,318
1686190218.62758,318
1686190218.6403124,319
1686190218.6529741,320
1686190218.6689816,320
1686190218.681279,319
1686190218.6932602,319
1686190218.7100096,319
1686190218.7219362,320
1686190218.7343113,320
1686190218.751034,320
1686190218.7629514,319
1686190218.77933,319
1686190218.7920597,319
1686190218.8043287,320
1686190218.8209774,320
1686190218.8329778,320
1686190218.845269,319
1686190218.860967,318
1686190218.8739622,319
1686190218.8859518,319
1686190218.9027956,320
1686190218.9150126,319
1686190218.927188,318
1686190218.9439583,318
1686190218.9560075,319
1686190218.9719582,320
1686190218.9839976,320
1686190218.9969656,319
1686190219.01326,318
1686190219.025232,319
1686190219.0374436,319
1686190219.0544596,320
1686190219.0661473,319
1686190219.0784695,318
1686190219.0951498,317
1686190219.1071649,318
1686190219.1231546,319
1686190219.1361701,319
1686190219.1482658,319
1686190219.164462,318
1686190219.1774964,318
1686190219.1896403,318
1686190219.2055035,319
1686190219.217806,320
1686190219.230484,319
1686190219.2465892,318
1686190219.2584546,317
1686190219.2745087,318
1686190219.287502,319
1686190219.2995021,319
1686190219.316495,318
1686190219.328522,317
1686190219.3405054,317
1686190219.3568065,318
1686190219.3695078,318
1686190219.3815196,318
1686190219.3975017,317
1686190219.4105225,317
1686190219.422514,318
1686190219.4385645,319
1686190219.4515154,320
1686190219.4675138,319
1686190219.4795632,318
1686190219.4925132,317
1686190219.5085227,318
1686190219.5205028,319
1686190219.533509,319
1686190219.5497258,318
1686190219.562499,317
1686190219.5745585,317
1686190219.5905116,317
1686190219.6025128,318
1686190219.6185114,318
1686190219.6316092,317
1686190219.6438222,316
1686190219.6604984,316
1686190219.6725085,317
1686190219.684529,318
1686190219.7015595,317
1686190219.7137804,316
1686190219.725803,316
1686190219.742566,316
1686190219.7548468,316
1686190219.7705007,317
1686190219.7835002,316
1686190219.7952359,316
1686190219.812413,316
1686190219.8242319,317
1686190219.8363738,318
1686190219.8529322,318
1686190219.8652468,317
1686190219.8773797,317
1686190219.893278,317
1686190219.906235,318
1686190219.9181855,318
1686190219.9348845,318
1686190219.946862,317
1686190219.9631958,316
1686190219.9758701,316
1686190219.9878767,317
1686190220.003858,317
1686190220.0168738,317
1686190220.0288634,316
1686190220.0455873,316
1686190220.05759,316
1686190220.0698996,318
1686190220.085564,318
1686190220.09859,318
1686190220.1146219,317
1686190220.126566,317
1686190220.1395895,318
1686190220.1556683,319
1686190220.1685696,319
1686190220.180582,318
1686190220.1968737,317
1686190220.2088885,318
1686190220.2215805,318
1686190220.2375796,319
1686190220.25014,319
1686190220.2621572,318
1686190220.2781463,317
1686190220.2909122,317
1686190220.3066509,318
1686190220.3198032,318
1686190220.3319476,317
1686190220.3486478,316
1686190220.360893,316
1686190220.3729112,316
1686190220.389655,317
1686190220.4019446,317
1686190220.4140053,316
1686190220.4300542,315
1686190220.4419694,314
1686190220.4589717,314
1686190220.470951,315
1686190220.4830158,314
1686190220.4999716,313
1686190220.5122468,312
1686190220.5239716,311
1686190220.5409508,312
1686190220.5532002,312
1686190220.5653195,311
1686190220.5819738,310
1686190220.5939708,309
1686190220.610288,309
1686190220.6229458,309
1686190220.6351194,309
1686190220.6509597,307
1686190220.6639702,306
1686190220.6760526,305
1686190220.692264,305
1686190220.7049518,305
1686190220.717108,306
1686190220.7330625,305
1686190220.745883,303
1686190220.7578826,303
1686190220.7739568,304
1686190220.7868931,304
1686190220.8031275,304
1686190220.8151202,304
1686190220.8269408,303
1686190220.8439472,303
1686190220.8562188,304
1686190220.8689363,304
1686190220.8849196,304
1686190220.8972156,303
1686190220.9089255,303
1686190220.9254377,303
1686190220.938433,304
1686190220.9549375,305
1686190220.9669287,304
1686190220.9789586,303
1686190220.9957716,303
1686190221.0079331,304
1686190221.0201313,305
1686190221.0364933,305
1686190221.0485497,305
1686190221.0606034,304
1686190221.0776074,304
1686190221.0897033,306
1686190221.1015809,307
1686190221.118604,307
1686190221.1306849,307
1686190221.146579,307
1686190221.1596432,307
1686190221.1715991,309
1686190221.18813,310
1686190221.2000842,310
1686190221.2120674,309
1686190221.2288263,309
1686190221.2415073,310
1686190221.2534986,310
1686190221.2699792,311
1686190221.2814894,310
1686190221.2984576,309
1686190221.3106408,309
1686190221.323583,310
1686190221.338853,310
1686190221.3518503,311
1686190221.3638408,310
1686190221.3798428,310
1686190221.3928456,310
1686190221.4049077,311
1686190221.4212441,312
1686190221.433179,312
1686190221.4495497,312
1686190221.4623048,312
1686190221.4750562,312
1686190221.4914913,314
1686190221.5033233,314
1686190221.5157866,313
1686190221.5320785,312
1686190221.544275,312
1686190221.5563025,313
1686190221.5729768,314
1686190221.5849717,315
1686190221.5973463,315
1686190221.6139846,315
1686190221.6260343,316
1686190221.642301,317
1686190221.6549833,318
1686190221.6669588,319
1686190221.6839774,319
1686190221.6959903,319
1686190221.7082727,319
1686190221.7249837,320
1686190221.7369812,321
1686190221.749556,321
1686190221.7657163,321
1686190221.7773874,321
1686190221.7939215,321
1686190221.8057857,322
1686190221.8189237,322
1686190221.8351114,322
1686190221.8474784,321
1686190221.8599048,321
1686190221.8765357,322
1686190221.8878887,323
1686190221.9008372,324
1686190221.917444,323
1686190221.929283,322
1686190221.9456036,323
1686190221.9579685,323
1686190221.9699776,324
1686190221.9863086,324
1686190221.999083,322
1686190222.0110776,321
1686190222.0278108,321
1686190222.0397882,322
1686190222.051765,323
1686190222.0684593,322
1686190222.0810554,321
1686190222.0935106,320
1686190222.1098554,319
1686190222.1218452,319
1686190222.1382184,319
1686190222.1507857,319
1686190222.1630437,318
1686190222.179053,317
1686190222.191656,317
1686190222.2039273,318
1686190222.2202213,318
1686190222.2325912,317
1686190222.2442844,316
1686190222.2612946,316
1686190222.2732835,316
1686190222.2892888,317
1686190222.3022246,317
1686190222.3142474,315
1686190222.3307345,314
1686190222.3427372,315
1686190222.3547378,315
1686190222.3718007,315
1686190222.3838,314
1686190222.3958097,313
1686190222.412754,311
1686190222.42516,310
1686190222.4368389,311
1686190222.4538486,311
1686190222.4660347,311
1686190222.4825552,310
1686190222.494044,310
1686190222.507041,311
1686190222.523627,313
1686190222.535326,314
1686190222.5478408,313
1686190222.5644534,312
1686190222.5766187,312
1686190222.5890484,313
1686190222.605028,313
1686190222.61834,312
1686190222.633026,311
1686190222.64566,310
1686190222.6584396,310
1686190222.6749246,310
1686190222.6869695,311
1686190222.6995683,310
1686190222.7156694,310
1686190222.727738,311
1686190222.7396884,313
1686190222.756889,318
1686190222.7690713,323
1686190222.7851284,329
1686190222.797099,335
1686190222.8101232,341
1686190222.8272367,346
1686190222.838446,350
1686190222.8510652,351
1686190222.8673873,350
1686190222.8794014,346
1686190222.891999,342
1686190222.9086893,337
1686190222.92051,333
1686190222.9330482,327
1686190222.9487243,322
1686190222.9617958,317
1686190222.9774547,313
1686190222.9895196,312
1686190223.0025353,309
1686190223.019202,307
1686190223.0311635,306
1686190223.0429504,304
1686190223.0600448,306
1686190223.0720255,308
1686190223.0842226,309
1686190223.1011183,310
1686190223.113398,311
1686190223.129051,314
1686190223.1413562,316
1686190223.1539614,319
1686190223.1700466,321
1686190223.1820524,322
1686190223.1951072,323
1686190223.2114463,324
1686190223.2235143,326
1686190223.236334,327
1686190223.2522573,327
1686190223.2647908,326
1686190223.2770963,324
1686190223.2937107,324
1686190223.3050892,323
1686190223.3217301,322
1686190223.3342059,322
1686190223.3472285,320
1686190223.3629577,319
1686190223.3754497,320
1686190223.387642,320
1686190223.4035716,320
1686190223.4165804,320
1686190223.428138,319
1686190223.4451528,318
1686190223.4565332,319
1686190223.4729545,319
1686190223.4861996,318
1686190223.4979405,317
1686190223.514517,317
1686190223.5268686,317
1686190223.5390575,318
1686190223.5557613,319
1686190223.5678046,320
1686190223.5804255,320
1686190223.5957816,320
1686190223.6087248,322
1686190223.6254497,324
1686190223.6370566,326
1686190223.649776,326
1686190223.6657362,326
1686190223.677901,327
1686190223.6903257,328
1686190223.7071993,330
1686190223.7187996,331
1686190223.731099,331
1686190223.7481093,330
1686190223.7600935,330
1686190223.772109,331
1686190223.7882419,333
1686190223.8012292,333
1686190223.8177533,332
1686190223.8301005,331
1686190223.8420932,331
1686190223.8581808,332
1686190223.8709176,333
1686190223.8833382,332
1686190223.8990505,330
1686190223.9111025,330
1686190223.9240928,329
1686190223.940832,330
1686190223.9529564,331
1686190223.9690259,330
1686190223.9818165,329
1686190223.993832,329
1686190224.0102336,329
1686190224.0222466,331
1686190224.0348666,332
1686190224.0514522,331
1686190224.0635111,331
1686190224.0758574,330
1686190224.092179,331
1686190224.104094,332
1686190224.1167278,332
1686190224.1329432,331
1686190224.145345,330
1686190224.1623292,330
1686190224.174069,331
1686190224.186481,331
1686190224.202793,330
1686190224.2150497,329
1686190224.2269595,328
1686190224.2431588,328
1686190224.2561567,329
1686190224.2685184,329
1686190224.283983,328
1686190224.2969422,328
1686190224.3129134,327
1686190224.3249807,328
1686190224.3378625,328
1686190224.354426,328
1686190224.3666277,326
1686190224.3788295,325
1686190224.395233,325
1686190224.4074576,325
1686190224.419702,325
1686190224.436109,325
1686190224.4484549,323
1686190224.4609244,322
1686190224.4769943,321
1686190224.4894056,322
1686190224.5057821,322
1686190224.5180645,322
1686190224.5303211,320
1686190224.545992,319
1686190224.5590544,319
1686190224.5710607,320
1686190224.5873773,320
1686190224.6000338,319
1686190224.6125162,318
1686190224.6281576,317
1686190224.6409354,318
1686190224.6574962,318
1686190224.6695936,318
1686190224.6818547,317
1686190224.6976438,315
1686190224.7109852,315
1686190224.7220998,315
1686190224.7395015,315
1686190224.7515554,314
1686190224.763542,312
1686190224.7803595,311
1686190224.7921572,311
1686190224.8080792,311
1686190224.8212276,311
1686190224.8337152,311
1686190224.8495095,309
1686190224.8621104,308
1686190224.874131,307
1686190224.8908198,308
1686190224.903283,307
1686190224.915044,307
1686190224.9317935,306
1686190224.944023,306
1686190224.9564521,306
1686190224.9723835,307
1686190224.9851358,308
1686190225.0013409,307
1686190225.0130317,307
1686190225.0259356,307
1686190225.0419772,309
1686190225.0539799,310
1686190225.0669575,310
1686190225.0836973,310
1686190225.0950003,310
1686190225.1079254,311
1686190225.1245573,313
1686190225.136441,314
1686190225.1520123,314
1686190225.1653152,314
1686190225.1782596,314
1686190225.194034,315
1686190225.2060683,316
1686190225.2179685,316
1686190225.2349672,316
1686190225.2471783,315
1686190225.259132,315
1686190225.2758708,316
1686190225.287787,317
1686190225.3006783,317
1686190225.3170686,316
1686190225.329081,314
1686190225.3457048,313
1686190225.357745,313
1686190225.3699646,313
1686190225.3860278,312
1686190225.3985431,311
1686190225.4106865,310
1686190225.4267364,311
1686190225.4398458,312
1686190225.4512792,313
1686190225.4675484,313
1686190225.4799442,313
1686190225.4968457,313
1686190225.5095112,314
1686190225.521787,316
1686190225.537714,317
1686190225.550403,317
1686190225.5624585,317
1686190225.5789602,318
1686190225.5914795,319
1686190225.6033614,320
1686190225.619072,321
1686190225.6330693,321
1686190225.6481001,321
1686190225.6607969,321
1686190225.6731727,322
1686190225.689516,322
1686190225.701094,321
1686190225.7141557,319
1686190225.7306454,317
1686190225.7424912,315
1686190225.7550652,314
1686190225.7710693,314
1686190225.7838,312
1686190225.7960024,311
1686190225.8124568,311
1686190225.8241105,313
1686190225.8411195,315
1686190225.852974,316
1686190225.864954,317
1686190225.8820057,317
1686190225.8942227,319
1686190225.9068546,320
1686190225.9229991,322
1686190225.9350684,323
1686190225.9473815,323
1686190225.9638312,323
1686190225.9760714,323
1686190225.99213,324
1686190226.0047984,325
1686190226.0174384,325
1686190226.0338368,324
1686190226.0457942,324
1686190226.0582402,325
1686190226.0746155,326
1686190226.0867364,327
1686190226.099176,326
1686190226.1151056,325
1686190226.127775,326
1686190226.1400437,326
1686190226.1568768,327
1686190226.1683989,328
1686190226.1844516,327
1686190226.197495,326
1686190226.2098143,325
1686190226.225909,326
1686190226.2385714,327
1686190226.250734,326
1686190226.2665102,325
1686190226.279506,324
1686190226.2912238,324
1686190226.3079617,325
1686190226.3202405,326
1686190226.3361986,325
1686190226.3487914,325
1686190226.3605888,324
1686190226.3769674,325
1686190226.389914,326
1686190226.4022872,326
1686190226.4184592,325
1686190226.4311926,324
1686190226.4431098,324
1686190226.459143,324
1686190226.4717963,324
1686190226.4881556,323
1686190226.5000918,322
1686190226.5120974,321
1686190226.5289502,321
1686190226.5414028,322
1686190226.553195,322
1686190226.569737,322
1686190226.5826821,321
1686190226.5948048,320
1686190226.611014,320
1686190226.622638,320
1686190226.636028,321
1686190226.6521525,320
1686190226.664606,319
1686190226.680492,318
1686190226.692728,318
1686190226.7054987,318
1686190226.7216015,318
1686190226.7337205,318
1686190226.745755,317
1686190226.762382,318
1686190226.7743738,319
1686190226.7869852,320
1686190226.8037715,321
1686190226.8158655,321
1686190226.831295,321
1686190226.8442261,322
1686190226.8567522,323
1686190226.8734689,324
1686190226.8848577,324
1686190226.8978395,324
1686190226.9142246,323
1686190226.9260774,324
1686190226.9388344,324
1686190226.9546275,325
1686190226.967729,324
1686190226.979777,323
1686190226.9961152,323
1686190227.0085924,323
1686190227.0252671,324
1686190227.0369482,324
1686190227.0495226,323
1686190227.0657513,322
1686190227.0778618,322
1686190227.0904891,322
1686190227.1059892,323
1686190227.1189573,323
1686190227.1315143,321
1686190227.1476948,321
1686190227.159968,321
1686190227.176477,321
1686190227.1879542,322
1686190227.2009966,321
1686190227.2166324,321
1686190227.2291603,320
1686190227.2420554,320
1686190227.2582254,321
1686190227.2704196,321
1686190227.2831025,321
1686190227.2990222,320
1686190227.311199,319
1686190227.3235073,319
1686190227.340009,321
1686190227.3526134,321
1686190227.3687983,320
1686190227.381124,319
1686190227.3931699,319
1686190227.4098454,320
1686190227.4220252,321
1686190227.4347022,320
1686190227.4510343,319
1686190227.463153,319
1686190227.4750776,319
1686190227.4912283,319
1686190227.5039427,320
1686190227.5199935,319
1686190227.532327,318
1686190227.5446887,318
1686190227.5615256,318
1686190227.5735683,319
1686190227.5857718,319
1686190227.6018372,319
1686190227.6145544,318
1686190227.6267946,318
1686190227.6429696,319
1686190227.6547127,320
1686190227.671662,320
1686190227.6839738,319
1686190227.696975,318
1686190227.7131393,318
1686190227.7249606,319
1686190227.737638,320
1686190227.7537594,319
1686190227.7660148,318
1686190227.7785826,318
1686190227.7948053,318
1686190227.806548,318
1686190227.81915,319
1686190227.8357334,318
1686190227.8480291,317
1686190227.8643658,316
1686190227.8764384,317
1686190227.8885696,318
1686190227.905013,318
1686190227.9175158,318
1686190227.9300182,317
1686190227.9459643,316
1686190227.9580202,317
1686190227.9709873,317
1686190227.9869618,317
1686190227.9992783,316
1686190228.0160742,316
1686190228.0280461,316
1686190228.03996,317
1686190228.0569828,317
1686190228.069314,317
1686190228.081277,316
1686190228.0976439,315
1686190228.1103988,316
1686190228.1226103,316
1686190228.1386137,317
1686190228.1510208,316
1686190228.1669137,316
1686190228.1796274,316
1686190228.191893,316
1686190228.2086413,317
1686190228.2207456,318
1686190228.2328143,317
1686190228.2493672,317
1686190228.2616751,317
1686190228.2736785,317
1686190228.2896304,319
1686190228.302271,318
1686190228.3145247,318
1686190228.3304274,317
